Stress,ECG_Rate_Mean,HRV_MeanNN,HRV_SDNN,HRV_RMSSD,HRV_SDSD,HRV_CVNN,HRV_CVSD,HRV_MedianNN,HRV_MadNN,HRV_MCVNN,HRV_IQRNN,HRV_Prc20NN,HRV_Prc80NN,HRV_pNN50,HRV_pNN20,HRV_MinNN,HRV_MaxNN,HRV_HTI,HRV_TINN,HRV_SD1,HRV_SD2,HRV_SD1SD2,HRV_S,HRV_CSI,HRV_CVI,HRV_CSI_Modified,HRV_PIP,HRV_IALS,HRV_PSS,HRV_PAS,HRV_GI,HRV_SI,HRV_AI,HRV_PI,HRV_C1d,HRV_C1a,HRV_SD1d,HRV_SD1a,HRV_C2d,HRV_C2a,HRV_SD2d,HRV_SD2a,HRV_Cd,HRV_Ca,HRV_SDNNd,HRV_SDNNa,HRV_DFA_alpha1,HRV_MFDFA_alpha1_Width,HRV_MFDFA_alpha1_Peak,HRV_MFDFA_alpha1_Mean,HRV_MFDFA_alpha1_Max,HRV_MFDFA_alpha1_Delta,HRV_MFDFA_alpha1_Asymmetry,HRV_MFDFA_alpha1_Fluctuation,HRV_MFDFA_alpha1_Increment,HRV_ApEn,HRV_ShanEn,HRV_FuzzyEn,HRV_CMSEn,HRV_RCMSEn,HRV_CD,HRV_HFD,HRV_KFD,HRV_LZC
0,110.05718190576248,70.83333333333333,2.400864624129446,1.0902656764674465,1.099214655659328,0.033894559399474535,0.015391986020716893,70.0,1.4826,0.021179999999999997,2.0,69.0,72.0,0.0,0.0,66.0,77.0,1.8,0.0,0.7772621369963466,3.2591837420942533,0.23848368134559403,7.958408551537251,4.19315902185722,1.6077963402137063,54.66510284821157,0.6851851851851852,0.7297297297297297,0.8888888888888888,0.3076923076923077,53.333333333333336,53.505766977410275,53.165992855028676,45.94594594594595,0.5079365079365079,0.4920634920634922,0.554700196225229,0.5459642140991688,0.54551536342104,0.45448463657896004,2.407200906893847,2.1971942241369864,0.5434879304610173,0.4565120695389828,1.7467553511930152,1.6008965272087163,1.586603343108839,0.7031730077823768,1.7451019932754883,1.3935154893843,1.3169973003332984,0.15314949287434754,-1.0,0.0009092539986150491,0.06216628123657632,0.6745152976013045,2.8170925164419685,0.887351479998801,0.6411448183747266,0.6942492977582603,1.7410476562833004,1.461849017949782,1.5499721391922392,0.9591479170272448
0,110.04613390794968,70.98148148148148,1.9473323866712884,1.3031167282892082,1.3067314834392416,0.027434372262000933,0.018358545089386183,71.0,1.4826,0.02088169014084507,2.0,70.0,72.4,0.0,0.0,66.0,76.0,1.6875,0.0,0.9239986931298444,2.4917134072598963,0.3708286396170872,7.233014216319048,2.6966633457237474,1.566289428655319,26.87724885362476,0.6851851851851852,0.7142857142857143,0.88,0.3333333333333333,57.99999999999999,57.89724311650761,58.10690146386158,42.857142857142854,0.6111111111111112,0.38888888888888895,0.7272180923534244,0.5801193511153213,0.540288548798467,0.4597114512015331,1.8315170691229152,1.6894321322356003,0.548952470172885,0.45104752982711505,1.3934311838649849,1.2630754908097515,1.4654261019289512,0.49841639589390563,1.6912648814482807,1.442056683501328,1.4576559031043264,0.44110682110409805,-1.0,0.00035507691425898705,0.027805258528833487,0.5245348437071273,2.788895414259689,1.1695534629962052,0.823607070434884,1.1078759901873598,1.981052098158195,1.6376183160801665,1.8572636504239828,0.8525759262464397
0,107.83995810142049,72.22641509433963,2.2756360854965223,1.1766968108291043,1.1856354934711522,0.03150697819522353,0.01629177925129115,72.0,1.4826,0.020591666666666664,2.0,70.0,74.0,0.0,0.0,70.0,79.0,1.358974358974359,0.0,0.8383708974489101,3.110217676784603,0.26955376908398015,8.191753062428617,3.709834974292077,1.620346962133461,46.153577259987884,0.6415094339622641,0.8214285714285714,1.0,0.5555555555555556,44.73684210526317,44.721315869148484,44.757307434388025,53.57142857142857,0.4305555555555557,0.5694444444444443,0.5512908203729234,0.6340037731068525,0.5246100473160582,0.475389952683942,2.2527297128300092,2.1444493087774843,0.5182135491479384,0.48178645085206145,1.639925719002941,1.5812374303421284,1.2919171693444693,0.8972484025235259,1.5140717754170376,1.0664880495034446,1.448471113537816,0.11378632481842477,-0.9988403709103928,0.0006540360825995193,0.07642705758439458,0.5128392688072814,2.6789485553759813,0.8183022335474645,0.8036253174355594,0.9463264109498867,1.563803812329223,1.491395044096692,2.05462691664118,0.5403698542040754
0,111.99634029709881,69.58181818181818,1.6408095234535578,1.0886621079036347,1.0963378464938565,0.02358100961325991,0.015645784148079413,70.0,1.4826,0.021179999999999997,2.5,68.0,71.0,0.0,0.0,66.0,72.0,1.4102564102564104,0.0,0.7752279257272621,2.173630158120444,0.35665125588688373,5.293768343107594,2.80385946633863,1.4307350424859913,24.378213980660558,0.7818181818181819,0.911764705882353,1.0,0.75,45.45454545454546,45.50628264175074,45.40308466517747,50.0,0.40624999999999994,0.5937499999999999,0.49526055654364853,0.5987408170800916,0.5371246856973821,0.46287531430261797,1.5930272593576682,1.4788279870336851,0.5222950819672132,0.47770491803278675,1.1796225811513885,1.1281451106289113,1.4188670280208828,0.7780169136149389,0.6524568728287514,1.0414653296362208,1.023213516845615,-1.1231425064594949,0.0,0.00032953443432138575,0.04768492227333673,0.6731387691065738,2.6343821714911786,1.0894602566265557,0.8175732289908906,0.8916181025535956,2.0178227511027194,1.499325120710483,1.9979345825718506,0.8409250492399505
0,105.0958771561301,74.41176470588235,2.892586873981387,1.6852299546352716,1.6849877368899122,0.038872708978405994,0.022647359074149897,74.0,2.9652,0.04007027027027027,3.0,72.0,76.0,0.0,0.0,68.0,81.0,1.2142857142857142,0.0,1.1914662549710309,3.76167570128429,0.3167381639422684,14.080334462615104,3.1571819055637045,1.85558308107065,47.505177834773676,0.5686274509803921,0.5853658536585367,0.7916666666666666,0.25,59.09090909090908,59.241447216033194,58.949894699288485,36.58536585365854,0.5704225352112676,0.4295774647887324,0.9091372900969895,0.7889543583705185,0.7339627322026078,0.26603726779739234,3.2226886987389256,1.940227211605141,0.7187717829295096,0.28122821707049034,2.367726025242837,1.4810352143424708,1.3667720411118132,0.5909528428959221,0.7758191982158911,1.0712956196638521,1.0104880753605883,-0.7625085113673056,0.0,0.0004489659999126608,0.03599041818478119,0.4471706968869946,3.202083441591458,1.0830770198239312,0.799628961353333,0.7900088312113168,1.7758503037407052,1.6247542121599758,1.7103103520671992,1.1122402631316657
0,108.2923426299017,71.9245283018868,2.2433582021652407,1.0561177090573832,1.0550460520497205,0.031190447196945897,0.014683693226663512,72.0,1.4826,0.020591666666666664,2.0,70.0,73.0,0.0,0.0,69.0,80.0,1.358974358974359,0.0,0.7460302178684525,2.8987436816881025,0.2573632924432963,6.79385238806541,3.8855580005463506,1.5390862165604031,45.052946815665564,0.6415094339622641,0.6764705882352942,0.9130434782608695,0.3333333333333333,40.47619047619049,40.9464301026815,39.98349621286361,58.82352941176471,0.396551724137931,0.6034482758620688,0.474858079933817,0.585779186129006,0.2542907639838172,0.7457092360161827,1.4617567511828797,2.50319438567962,0.26330764057731104,0.7366923594226888,1.0867895370556249,1.8178447936223723,1.5337780541193218,0.353208343211004,1.6748729583647322,1.4982687867592301,1.3284675822448317,0.05698150466419971,-1.0,2.168081562026001e-05,0.006392273548514979,0.5488640679888852,2.8690757415907733,0.9675437176294517,0.0,0.0,1.8073094569476351,1.4973826118344196,1.5130346766795209,0.7565177958857056
0,110.77832134201485,70.38181818181818,1.459209693393286,0.7576767609436587,0.7627325916002987,0.020732764953921658,0.01076523426812225,70.0,1.4826,0.021179999999999997,2.0,69.0,72.0,0.0,0.0,68.0,73.0,1.71875,0.0,0.5393333877525607,1.9902364758764612,0.27098960062775895,3.3721886361499704,3.690178507527438,1.2348819705015721,29.37731147270587,0.6727272727272727,0.7419354838709677,0.9565217391304348,0.23076923076923078,45.16129032258067,45.17552290951009,45.14797064713037,54.83870967741935,0.45161290322580655,0.5483870967741935,0.3634218921558155,0.4004714203168136,0.4902662001303557,0.5097337998696442,1.3935439111657844,1.4209421513777125,0.48760855775066975,0.5123914422493303,1.0183418149239833,1.0438998888908093,1.4049057935722005,0.6909398959866362,0.8781218011857632,1.2235917491790813,1.3361540077903928,-0.22396808989921801,0.0,0.00013873357142769494,0.03114298532933273,0.7101868834305334,2.4714701010328257,0.968646641478464,0.7284122931595064,0.7010740372504959,2.065758608051202,1.5273958718344913,2.054809726634984,0.8409250492399505
0,111.69837731912081,69.83636363636364,1.166883096807971,0.9128709291752769,0.9212530584827394,0.0167088181006088,0.01307157019126275,70.0,1.4826,0.021179999999999997,1.5,69.0,71.0,0.0,0.0,68.0,72.0,1.3414634146341464,0.0,0.651424284841992,1.5073196670303062,0.43217394365019884,3.084744391371305,2.3138831359287106,1.196189293236697,13.95104623198042,0.6727272727272727,0.8888888888888888,1.0,0.36363636363636365,48.484848484848484,48.44969713687465,48.519584550180674,55.55555555555556,0.5333333333333334,0.4666666666666666,0.47583095143088644,0.44509909856926216,0.44876970396001525,0.5512302960399846,1.0097576007632185,1.119107754560418,0.46208292840945897,0.537917071590541,0.7893115692293867,0.8516206238297751,1.0593632977448009,0.2994877993226066,1.1340136657149242,0.9842697660536209,1.14528461628983,0.03240077219497506,-1.0,7.764253884911302e-05,0.00837850559964979,0.8320285985313309,2.1727189653740036,1.133319413230153,0.7401596791409476,0.7052987543683668,2.0044915389927476,1.5870338900768488,2.507078242481002,0.8409250492399505
0,110.75810832497655,70.5,1.8908917732417176,0.9905211130872972,0.9934473265911864,0.026821159904137838,0.014049944866486485,71.0,1.4826,0.02088169014084507,1.75,69.0,72.0,0.0,0.0,66.0,74.0,1.8620689655172413,0.0,0.7024733413842746,2.53623951655617,0.27697436965185657,5.597189170295952,3.6104423714618497,1.4549400951296132,36.62778645900125,0.6481481481481481,0.78125,0.88,0.5555555555555556,57.89473684210527,57.80768732471222,57.9826352213652,40.625,0.5384615384615385,0.4615384615384617,0.5188745216627707,0.4803844614152613,0.5465663527688848,0.453433647231115,1.8750450697908625,1.707839826094371,0.5459818016270697,0.45401819837293045,1.3756861529756323,1.2544891594516236,1.2306039260415584,0.48692336302665584,0.7436805630149026,0.9871422445282305,0.9673939294630367,-0.7625963792856183,0.0,0.00057801959817124,0.037472820862166245,0.5506120394727971,2.821668819275531,0.9003142177152531,1.104411602222708,1.048359108142064,1.8044709201872766,1.5193422479155894,1.8688429777377413,1.0657199078080497
0,105.97727871430504,73.57692307692308,1.3626121662217188,0.8856148855400953,0.8944271909999159,0.01851955897635373,0.012036584957680332,74.0,1.4826,0.020035135135135135,1.0,73.0,74.0,0.0,0.0,70.0,77.0,1.0612244897959184,0.0,0.6324555320336758,1.8385842805981853,0.3439905032952341,3.653115563941579,2.9070569984361967,1.269633521015285,21.37947720051094,0.5384615384615384,0.7727272727272727,0.8823529411764706,0.3,50.00000000000002,50.00132895633996,49.998679744176385,40.909090909090914,0.4,0.6000000000000001,0.39999999999999997,0.48989794855663554,0.5888585596651655,0.41114144033483463,1.4108766269924589,1.178905976008743,0.5688756000325441,0.43112439996745583,1.0369601864569387,0.9027234627141157,1.225392035324823,1.5281650031469503,0.018370041991901065,0.7824525435653762,1.7410049839167643,-0.4724367737707835,0.0,0.000780102504731001,0.1590890378237018,0.6267039471164573,2.229300876239463,0.8749810259855295,0.8431912558623506,0.7490537972313039,1.3407410778793685,1.5550859524514362,1.9798554697102273,0.8769907258678603
0,109.47000615788522,71.22222222222223,1.5979546675349885,0.900733453756982,0.9091535801065789,0.022436180979430415,0.012646803562890541,71.0,1.4826,0.02088169014084507,2.0,70.0,73.0,0.0,0.0,68.0,76.0,1.588235294117647,0.0,0.642868661633389,2.1821115989973934,0.2946085167819856,4.4070612446267905,3.3943350006409148,1.3511191958741704,29.62727110312546,0.5555555555555556,0.6551724137931034,0.8421052631578947,0.25,48.4848484848485,48.46123405564175,48.50912722789287,55.172413793103445,0.5581395348837209,0.4418604651162791,0.4803844614152613,0.4274252071325551,0.39772960911204447,0.6022703908879555,1.376166303139266,1.6934513091857588,0.41054553271708033,0.5894544672829196,1.030680096990629,1.235003976567539,1.3512442911792732,0.8436303579360012,0.5076139332432721,0.9294291122112727,1.0271723215835327,-1.0047292438954372,0.0,0.0007713930015175282,0.07098632430598692,0.6986011060500492,2.605313877255337,0.9409900514325864,0.5964916754832743,0.7569551470263729,1.7898830747801895,1.4686713232080972,1.905841724703061,1.0657199078080497
0,109.95727283847671,70.96296296296296,0.9898153622936777,0.9809506363438459,0.9901547283464154,0.013948337568856628,0.013823417109229562,71.0,1.4826,0.02088169014084507,2.0,70.0,72.0,0.0,0.0,69.0,73.0,1.6875,0.0,0.7001451228376739,1.2201441776378374,0.5738216316313814,2.683793473629845,1.7427018168642208,1.1357192024148084,8.505389900823038,0.7222222222222222,0.9090909090909091,1.0,0.4444444444444444,51.28205128205129,51.29404105670453,51.270007349842736,48.484848484848484,0.5098039215686274,0.4901960784313726,0.49999999999999994,0.49029033784546,0.5165226548452813,0.4834773451547187,0.8769116486217169,0.8483971798250244,0.5148579068347582,0.48514209316524176,0.7137835944768055,0.6928789180367917,1.0807193512538527,0.395804536830745,1.0043924754774016,0.9588982580531819,1.0098696420349718,0.8830703496909382,-0.6149411216670165,9.014436137240423e-05,0.012609378068198316,0.7916190754658312,1.8863711832106598,1.107110181795061,0.7852718217090917,0.7966594916198689,1.8796983896650366,1.6137119926452463,2.8251417395320133,1.0657199078080497
0,111.1843511026659,70.12962962962963,1.9623464612097685,0.8241633836921342,0.8311776666259886,0.02798170290608067,0.01175199966183661,70.0,1.4826,0.021179999999999997,3.0,69.0,72.0,0.0,0.0,66.0,74.0,1.542857142857143,0.0,0.587731364442048,2.72679548975731,0.21553921687554106,5.0347893776197035,4.639526924594102,1.4089514172147253,50.60416437036319,0.6481481481481481,0.8,0.9166666666666666,0.4444444444444444,46.87500000000002,46.92464679696909,46.82616970287675,53.333333333333336,0.4722222222222224,0.5277777777777778,0.40430377003131995,0.4274252071325551,0.47160557824682625,0.5283944217531739,1.8725871276372892,1.9821279202836373,0.47163300892632476,0.5283669910736752,1.3546298551734366,1.4337927674633186,1.4061282340091175,0.6916224528635977,0.8749255429183584,1.2207367693501574,1.3245141300841103,-0.1961682601801309,0.0,0.00018746526592959317,0.03357584832111895,0.5562235115978682,2.748261284354088,0.8421249681746044,0.6994851905921591,0.7223085725070577,1.507260558164252,1.4686829876657423,1.728983647136291,0.5328599539040249
0,110.23688423383763,70.75925925925925,1.4528460706837896,1.0093898773656798,1.0190493307301363,0.020532239679907,0.01426512781411848,71.0,1.4826,0.02088169014084507,2.0,69.0,72.0,0.0,0.0,68.0,73.0,1.6363636363636365,0.0,0.720576692122892,1.9445319859575978,0.3705656154419281,4.401950699575338,2.698577413361525,1.3506152842485697,20.989880387456815,0.7592592592592593,0.8888888888888888,1.0,0.4444444444444444,50.000000000000014,50.00001136116167,49.99999641534315,50.0,0.5000000000000001,0.5000000000000001,0.509524665365068,0.509524665365068,0.5229344592649458,0.4770655407350541,1.406172893386795,1.3430869064645072,0.5201653729328384,0.47983462706716173,1.0575768508035657,1.0157504179009194,1.3027311572812972,0.7277076463450236,0.7275646025460656,1.0914184257185773,1.3073437794246594,-0.12724242530813967,0.0,0.0003155875914036383,0.044190476397853264,0.7293387941788891,2.416056608612904,1.0450774556872473,0.6930231264666359,0.7658259118460187,2.049882127212624,1.547824728116897,2.982413438967885,0.8525759262464397
0,110.26779638474359,70.77777777777777,1.5254651832005974,0.8687444855261388,0.873742098099486,0.021552883279129322,0.012274254897543564,71.0,1.4826,0.02088169014084507,2.0,69.6,72.0,0.0,0.0,67.0,73.0,1.5,0.0,0.6178289625743082,2.020217120349366,0.3058230505775854,3.921174622014818,3.269864708076693,1.300386293167071,26.42334665793087,0.7222222222222222,0.8709677419354839,1.0,0.7777777777777778,44.11764705882356,43.95530295499199,44.276027831811646,54.83870967741935,0.42500000000000016,0.575,0.40430377003131995,0.47026997156298006,0.420060421643093,0.579939578356907,1.309344502826997,1.5384713797368503,0.42048583219381763,0.579514167806182,0.9689800218644382,1.1375517641899322,1.2410371512471339,0.9924579216791587,0.42684467621451194,0.9230736370540913,1.394264804532087,-0.7179700641749438,0.0,0.0001703919811771497,0.05705700907687364,0.6554798616139199,2.4210059448442443,0.9442766484426157,0.7249326160200514,0.6474077062763186,1.9853731441659213,1.647430031293752,2.1692908175021386,0.7460039354656347
0,110.87901047369611,70.38181818181818,2.0681975431377624,0.9329364235414814,0.9400254245190065,0.02938539521378893,0.013255361223141691,70.0,1.4826,0.021179999999999997,3.0,68.0,72.2,0.0,0.0,67.0,74.0,1.8333333333333333,0.0,0.6646983521651525,2.8375846758207643,0.23424793551681067,5.925476838812676,4.268981059720954,1.479693414877249,48.45438094573306,0.8,0.875,1.0,0.4444444444444444,54.05405405405408,54.15791519266422,53.95078813847384,43.75,0.5106382978723404,0.4893617021276596,0.4758309514308864,0.46581233568409464,0.5367766712230684,0.46322332877693156,2.0789576690057494,1.9312746575603923,0.5354124251958788,0.4645875748041212,1.50805836821017,1.4047780847896372,1.7055280772918657,1.0441155340804933,0.714020236150195,1.2360780031904417,1.1052153858776452,-1.1487634594662937,0.0,0.0006308486228939321,0.08805341040988182,0.6266448957745894,2.906284324989056,0.8765963553574505,0.8125936229818929,0.9641275738744719,2.0795587632486603,1.3722556269862594,1.7164478294318988,0.8409250492399505
0,108.26286533251796,72.09433962264151,2.371822983920533,1.0469736606781692,1.0555820165506602,0.032898879389633144,0.014522272707653223,72.0,2.9652,0.04118333333333333,4.0,70.0,74.0,0.0,0.0,68.0,76.0,1.4722222222222223,0.0,0.7464092020015423,3.2746051999723984,0.22793868464138325,7.6786664827941635,4.387144734002934,1.5922559147004296,57.46466783599013,0.5849056603773585,0.6896551724137931,0.9,0.14285714285714285,54.05405405405407,54.12704139415714,53.980170647125135,55.172413793103445,0.6666666666666669,0.3333333333333333,0.6103679378930738,0.43159530790304185,0.49831428571428577,0.5016857142857143,2.3115889832431242,2.3193955221641898,0.5066532696067783,0.4933467303932219,1.6905609493684077,1.6682131305740306,1.4348374899890906,0.28744971679585163,1.4034777201918294,1.3727837139510974,1.0004195025322118,0.5372582180704257,-0.6067804365329432,5.1874590420377883e-05,0.006824574366087525,0.5708131230508009,3.0786267702309207,0.8218009100105149,0.8708588699747819,0.9093965399315964,1.9184557529191317,1.4162963120676542,1.7282746822142256,0.6484438250448905
0,106.48057088926718,73.3076923076923,2.1007791415349435,1.2524485821702989,1.2649110640673518,0.028657008226604688,0.017084818014914883,73.0,1.4826,0.02030958904109589,1.25,72.0,75.0,0.0,0.0,69.0,78.0,1.1304347826086956,0.0,0.8944271909999157,2.8634272622636163,0.31236246255923644,8.046018405285226,3.2014090035237825,1.6125511316477754,36.668007273384795,0.5769230769230769,0.6052631578947368,0.782608695652174,0.4444444444444444,50.0,49.99934188382152,50.00071237080799,52.63157894736842,0.5375000000000001,0.4625000000000001,0.6557438524302,0.6082762530298219,0.4934695228770674,0.5065304771229328,2.0114827994969406,2.0379285153317968,0.4973836841691529,0.502616315830847,1.4960051892744304,1.5038538216200505,1.7154941380511204,0.4293328523205311,1.3040435578248726,1.5187099839851381,1.0357645441885666,-0.36199725460044974,0.0,0.0001947349919983715,0.019045024767137833,0.563469813497333,2.8721574637809058,1.0354866604806732,0.5265754007329,0.6617304367689548,1.7740433224462007,1.4764267015581618,2.413287379514407,0.9866145666013428
0,108.06876984177265,72.16981132075472,2.6145734249557346,1.2480754415067656,1.252900104836714,0.03622807621507292,0.017293594352904205,72.0,1.4826,0.020591666666666664,2.0,71.0,73.0,0.0,0.0,67.0,80.0,1.2619047619047619,0.0,0.8859341602793768,3.528247356941504,0.25109751971793653,9.819974167013719,3.982516438725967,1.699080455270314,56.20521239564394,0.6792452830188679,0.7714285714285715,0.9259259259259259,0.625,57.14285714285716,56.96674324864552,57.31657904128503,48.57142857142857,0.6419753086419752,0.35802469135802467,0.7140055472954165,0.5332107702308685,0.4734445757038787,0.5265554242961212,2.4276920573849963,2.560242310070379,0.48355080510827325,0.5164491948917269,1.7893424276894045,1.8492098869199118,1.6121434377770691,1.3620762186242898,0.41130255503228597,1.092340664344431,1.3224706717590133,-0.2669281125304712,0.0,0.0031055537821610938,0.22503310809919325,0.4855733048829278,2.911727701978146,0.8414274515827358,0.7072999651936157,0.5684348664029257,1.2856298880306947,1.5144414744409795,1.7509348921148502,0.8645917667265206
0,106.24354103155444,73.34615384615384,2.488283252464382,1.1631599960755994,1.1732308333125643,0.03392520428110851,0.015858500208686725,73.5,3.7064999999999997,0.05042857142857143,4.0,71.0,75.80000000000001,0.0,0.0,68.0,79.0,1.1818181818181819,0.0,0.8295994781324582,3.3387211359335494,0.2484782179630859,8.701587453683452,4.024497632820921,1.6465685993027772,53.74670123285498,0.6538461538461539,0.7586206896551725,0.9545454545454546,0.5454545454545454,46.34146341463416,46.53402053621205,46.14176484102816,48.275862068965516,0.4202898550724639,0.5797101449275364,0.5385164807134504,0.6324555320336758,0.4782523669098247,0.5217476330901752,2.3089190688363215,2.411628403608944,0.4748736447319575,0.5251263552680427,1.676470588235294,1.7629452000974708,1.4026044877178554,0.15248715049053807,1.3816912047413945,1.344900220867319,1.0,0.377316481517048,-0.7412726826865214,1.120966264507255e-05,0.0016859060481270425,0.4415433944966187,3.1510469290970824,0.9266385187678411,0.7673616142757513,1.1396269845269336,1.8073000915185307,1.4198005771043756,1.5029059411238148,0.6577430444008953
0,109.13039261748585,71.44444444444444,1.9099211350572471,0.9111469032188405,0.9167051493879417,0.026732955234082777,0.01275322259559808,72.0,1.4826,0.020591666666666664,1.75,70.0,73.0,0.0,0.0,67.0,75.0,1.35,0.0,0.6482084274808406,2.6007981358414245,0.24923442482825706,5.296283097080636,4.0122868287118925,1.4309413009353544,41.74059241829996,0.6666666666666666,0.7586206896551725,0.9090909090909091,0.6,44.117647058823536,44.287882144648016,43.9449087170258,58.620689655172406,0.4772727272727273,0.5227272727272727,0.4493585171364585,0.47026997156298006,0.4387318754769612,0.5612681245230388,1.7226864570796052,1.948461524893613,0.44100058676501963,0.5589994132349804,1.2588827797552398,1.4173313233229183,1.5031898830023518,0.3986798961198623,1.2220165774884464,1.4213565255483775,1.2492672750558196,-0.04535279528134595,0.0,4.140340109693372e-05,0.009865049762008615,0.6583746250729661,2.746366765837969,0.9472709355401759,0.8973353479421533,1.0065185334292224,1.7481255453701001,1.5123638807446926,1.5734067150285325,0.9591479170272448
0,104.9861762333981,74.3529411764706,4.959127057907529,1.8055470085267789,1.8237660071894068,0.06669712024084493,0.024283464513413955,73.0,5.9304,0.08123835616438356,9.0,69.0,80.0,0.0,0.0,68.0,84.0,2.217391304347826,0.0,1.2895973109811434,6.963183062892067,0.18520227018784224,28.21056631772414,5.399501847281599,2.1573819145217623,150.39087924418263,0.6274509803921569,0.6944444444444444,0.88,0.16666666666666666,50.76923076923078,50.78755899263873,50.74880264524572,52.77777777777778,0.5828220858895704,0.41717791411042937,0.9845749108635872,0.8329931278350429,0.4971151733514043,0.5028848266485957,4.90948935371956,4.9378975944283425,0.4999577586873451,0.5000422413126547,3.540654845462047,3.540953981915157,1.6463606039929584,0.24790174163880696,1.691890448100839,1.5679395772814355,1.0910596882157613,0.05921199907887331,-1.0,0.00018453501730392692,0.009465414300664634,0.24799686570220159,3.782158126404672,0.7066118555634409,0.626381484247684,0.6597643324038147,1.5377290709480667,1.3550937099321076,1.8318736605401782,0.44489610525266626
0,104.03894654737849,74.96078431372548,2.2446450437761913,1.174734012447073,1.1864885595912067,0.029944257711897924,0.015671314317237964,75.0,1.4826,0.019767999999999997,2.5,73.0,77.0,0.0,0.0,70.0,79.0,1.108695652173913,0.0,0.8389741062872013,3.0772701923514445,0.27263582781013884,8.110806863037883,3.667896505137216,1.616034169935552,45.148434335555166,0.6274509803921569,0.5882352941176471,0.8,0.15384615384615385,51.11111111111112,51.08726676128714,51.134678215159134,50.0,0.536231884057971,0.4637681159420291,0.6144518047887589,0.5714285714285714,0.5099566819680611,0.49004331803193907,2.1975171518450227,2.154184347747804,0.5117750897675072,0.488224910232493,1.6134795711537882,1.5759189091331018,1.6632708768759494,0.5698472483047521,1.7723518423870073,1.616654912964095,0.8933679144635001,0.7802029840894171,-0.7732257282738446,5.0323792604281394e-05,0.0184943031099905,0.45254303913427796,3.0946798129023136,1.076019919108976,0.7327984381041049,0.7713361080609196,2.2239731836831576,1.4238067628430677,2.062085179954218,1.0010162368184992
0,104.26202336492929,74.78846153846153,2.6886583757027966,1.3135791548583706,1.3260585856397975,0.03595017627578952,0.017563928015591482,75.0,1.4826,0.019767999999999997,2.0,73.0,77.0,0.0,0.0,69.0,79.0,1.2380952380952381,0.0,0.9376650181565429,3.691537752806024,0.25400390865400246,10.874389908241218,3.9369472906898215,1.743375010814513,58.133558217555475,0.5769230769230769,0.6216216216216216,0.8260869565217391,0.25,48.07692307692307,48.138052223056235,48.01562585773173,54.054054054054056,0.5113636363636362,0.48863636363636376,0.6708203932499368,0.6557438524302001,0.5003901819720694,0.49960981802793064,2.6113296758344946,2.6092926827970584,0.5010558150924315,0.4989441849075684,1.906442062572829,1.9024206034021853,1.5947436828450523,0.8058636869203801,1.8779446813495437,1.4750128378893537,1.5625862211426336,0.26309786058034135,-1.0,0.000513898104415345,0.05424613090279609,0.5153433829835161,3.1705608009992114,0.9708434314131476,0.0,0.0,1.9487393592027118,1.4531263138940271,1.8054063334405424,0.7673668851343778
0,106.99077440477552,72.82692307692308,1.9273180984960285,0.9901475429766743,0.9968578084140579,0.02646436258827396,0.013595899718718527,73.0,1.4826,0.02030958904109589,3.0,71.0,74.80000000000001,0.0,0.0,69.0,76.0,1.2380952380952381,0.0,0.7048849162083405,2.6299183615152963,0.26802539824932153,5.823852366373302,3.730989699229115,1.4721804671180625,39.24879326650833,0.6538461538461539,0.8275862068965518,1.0,0.4,44.44444444444445,44.45167815431999,44.439608885679206,51.724137931034484,0.4,0.6000000000000001,0.44721359549995787,0.5477225575051661,0.5318031277828362,0.46819687221716394,1.9178635749295412,1.7995193514363135,0.5229172887429082,0.47708271125709173,1.3925158333106162,1.3300883234194958,1.3950151790721594,0.4662017002810348,1.5648347065726185,1.331733856432101,1.4318840378670394,0.08155687184503524,-1.0,1.6255179343965212e-05,0.010476278416380215,0.544553291294116,2.7700974788152246,0.9051390234271853,0.5217599412801193,0.6084033388501124,1.9309889553407835,1.4084632700303525,1.8372448944759818,0.5481192036674126
0,110.81819374449597,70.38888888888889,4.919796999442484,1.853095319769316,1.870440755862139,0.06989451143643624,0.026326531772571184,71.0,5.9304,0.08352676056338028,8.0,65.0,75.0,0.0,0.0,62.0,81.0,1.8620689655172413,15.625,1.32260134227781,6.88836443478109,0.19200513486186388,28.621668515440962,5.208194045015722,2.1636650575521212,143.50375451649987,0.5555555555555556,0.5365853658536586,0.7727272727272727,0.15384615384615385,51.42857142857142,51.391244672585856,51.460426215621865,53.65853658536586,0.6483516483516484,0.3516483516483516,1.0651832633943252,0.784464540552736,0.4436118561281617,0.556388143871838,4.587939561352889,5.1381295397965685,0.45089433188589356,0.5491056681141064,3.330450780543253,3.6753067751627695,1.7523544068735042,0.3182653479526727,1.5171080038456175,1.6688485006201794,1.0,0.6127156045673114,-0.023226459460090755,0.00022773079366518475,0.01775872665059145,0.355506346135138,3.8634251783224016,0.7088766619881014,0.7361097447916101,0.8638161507331078,1.602399884737342,1.3072960158472349,1.9612367504895991,0.5328599539040249
0,108.54048172434248,71.87037037037037,2.740653387846239,1.2438528093471328,1.255177954759088,0.038133285994253266,0.017306892992719706,72.0,3.7064999999999997,0.05147916666666666,4.75,69.0,75.0,0.0,0.0,66.0,76.0,1.4594594594594594,0.0,0.8875448434060127,3.782407140113939,0.23465079525502291,10.546502319226937,4.2616518683142806,1.7300785624562967,64.47720982156737,0.6111111111111112,0.6216216216216216,0.9130434782608695,0.4,52.0,51.933960331744174,52.06555830963141,51.35135135135135,0.5609756097560976,0.4390243902439024,0.6650621717611762,0.588348405414552,0.5114375636742805,0.4885624363257194,2.7049832861619554,2.643798251601164,0.514025087690813,0.4859749123091868,1.9696753883220484,1.915179239826291,1.7642798782909537,0.11678469846073747,1.8129553194382313,1.7545629702078624,1.0959067796204485,0.09342171596896609,-1.0,3.307169438866322e-05,0.0019108663391565455,0.4727733968364598,3.1752733218718965,0.9459167175882183,0.9527282650269454,1.034429321120821,1.9031163826630153,1.368721751634228,1.981006586876508,0.6394319446848298
0,105.6143953250785,73.8076923076923,1.495594334461388,0.9393364366277243,0.946821307446814,0.02026339379676711,0.012726809459260465,74.0,1.4826,0.020035135135135135,1.0,73.0,74.80000000000001,0.0,0.0,71.0,79.0,1.0196078431372548,0.0,0.669503767067555,1.9764297381399434,0.3387440262347186,4.157040709269734,2.952081579461099,1.325754387468881,23.3383272922482,0.6923076923076923,0.7741935483870968,0.9583333333333334,0.3333333333333333,45.71428571428573,45.7940711192962,45.63464985850351,54.83870967741935,0.4444444444444444,0.5555555555555556,0.44721359549995787,0.4999999999999999,0.4967845184454668,0.5032154815545334,1.393045836025772,1.4020334548559026,0.49137782673045816,0.5086221732695418,1.0345474134298394,1.0525440153587824,1.2872547065625435,0.7303820073798686,0.5999873259558477,0.965178329645782,1.0862292535463456,-0.7381237176490214,0.0,0.0003933022689887674,0.04358850018656143,0.6073051231596649,2.3791145221643917,0.9965729807382654,0.5378218071964365,0.5502772466122726,1.643871037702599,1.60131556218029,1.8133744417007067,1.0962384073348252
0,108.01269146050981,72.15094339622641,2.3890473351968815,1.1519214716824566,1.1591006551669472,0.033111796225270586,0.015965438807314384,72.0,2.9652,0.04118333333333333,4.0,70.0,74.0,0.0,0.0,68.0,76.0,1.394736842105263,0.0,0.8196079333463183,3.2570552264452983,0.25164078480819196,8.38650767321846,3.9739186188050932,1.6305512586331965,51.773089627389645,0.5283018867924528,0.5714285714285714,0.75,0.23076923076923078,44.44444444444445,44.300411241163935,44.58681842983967,54.285714285714285,0.4057971014492752,0.5942028985507246,0.5239368319955837,0.6340037731068525,0.47360062804950576,0.5263993719504941,2.2414613638679923,2.3631038281044,0.46953615468150595,0.5304638453184939,1.6276760810484574,1.7300607629091231,1.4107044910209232,0.5214436771017705,1.5254416424656319,1.6099026988570881,0.5407166835694674,-0.3425207131210497,-0.3380245842448444,0.00014563741431740073,0.02193390025263765,0.5235059520695717,3.086371686505002,0.9539582342325668,0.6892100913179104,0.8022063722536747,1.941721152212565,1.5166953838715118,2.2526799312899017,0.6484438250448905
0,109.00965343584659,71.64150943396227,2.6609305748079466,1.278520779891897,1.2908484003786738,0.03714230193964213,0.017846089369046757,72.0,1.4826,0.020591666666666664,3.0,69.0,73.0,0.0,0.0,65.0,76.0,1.394736842105263,0.0,0.9127676573915677,3.6333412899299864,0.25121990601911126,10.418766622280083,3.980576284125853,1.724786420015336,57.85116868332216,0.6792452830188679,0.6666666666666666,0.9545454545454546,0.15384615384615385,51.06382978723404,51.110234149494936,51.01779296256866,48.484848484848484,0.49411764705882344,0.5058823529411766,0.6416889479197478,0.6492831643058214,0.5474476982621201,0.4525523017378799,2.688298633822281,2.444221631624137,0.5442810943808406,0.45571890561915945,1.954317559980094,1.7882656418930523,1.349405768134492,0.3440274990507075,1.3268155456449806,1.2825533618118403,1.0027356267928789,0.6330063442340657,-0.6286588541767015,8.702997352068049e-05,0.009948598152078016,0.4866369558639416,3.1589785921477604,0.9388329640798865,0.7628255311772004,0.818611419005753,1.785925512582399,1.4914285742785338,1.812050208390676,0.6484438250448905
0,114.50832253294213,68.19642857142857,6.24476404054452,1.257703534947001,1.2585064099313854,0.09157025039813907,0.018442366576860974,69.5,8.1543,0.11732805755395682,12.25,60.0,74.0,0.0,0.0,58.0,77.0,2.24,0.0,0.8898984166292194,8.777880065891676,0.10137965088941114,24.540304624682346,9.86391244423241,2.096850059387718,346.336961663714,0.6428571428571429,0.6190476190476191,0.8461538461538461,0.3333333333333333,41.818181818181834,41.215999288173435,42.424121959964275,52.38095238095239,0.3563218390804597,0.6436781609195403,0.5357583756107197,0.7200822998230956,0.5118597706555772,0.4881402293444227,6.280079500353651,6.132844358078581,0.5102504757567041,0.4897495242432957,4.4568170013923165,4.366365676333969,1.788901907131312,0.5624485549997251,1.2530915415647566,1.5343158190646191,1.0532763788663395,-0.518389253557423,0.0,0.00026303997380253916,0.029762659504471167,0.5438382240738919,4.034883833375794,0.4938842565481864,0.35659803338802015,0.3872674100363536,1.555886134204989,1.290599258914946,1.7403626894942439,0.41481106586125743
0,118.52521776835246,65.89830508474576,4.681934890524603,1.0170952554312156,1.0165002888664507,0.07104788028316657,0.015434315861739127,67.0,5.9304,0.08851343283582089,9.5,60.0,70.0,0.0,0.0,58.0,74.0,1.903225806451613,0.0,0.7187742473355516,6.587399289635397,0.1091135083410641,14.874979294776121,9.16476809520437,1.8794264798466984,241.48794736008963,0.7288135593220338,0.823529411764706,0.9285714285714286,0.4444444444444444,59.52380952380951,59.85618787799007,59.17088051072405,35.294117647058826,0.5166666666666666,0.4833333333333335,0.5214689104456789,0.5043668951391246,0.584035679776172,0.415964320223828,5.034237246331981,4.248562668566007,0.5832283651562647,0.41677163484373525,3.5787899125904,3.025282690398121,1.6041988512974774,1.140829528653865,0.5735972596533383,1.1440120239802707,1.2112664167505338,-1.003646561667142,0.0,0.0006000100957123588,0.09880388572851244,0.37302547202637193,3.673512601435784,0.47004708451873933,0.5172425604531352,0.5828336265700079,1.341874909110029,1.3570236274535479,1.37092338888679,0.29911744318789024
0,106.48870313836758,73.38461538461539,4.943420448588546,1.6686262989328067,1.6777669566373972,0.06736317173129044,0.02273809422025837,74.0,5.9304,0.08014054054054054,8.0,68.0,78.0,0.0,0.0,65.0,83.0,2.0,0.0,1.1863603922890196,6.90754063665635,0.17174859399209944,25.74482595468088,5.822463967571116,2.1176600701305914,160.87562584585936,0.5769230769230769,0.5675675675675675,0.8571428571428571,0.36363636363636365,56.4516129032258,56.627917668801246,56.26309325139417,51.35135135135135,0.6549295774647887,0.3450704225352113,0.9643650760992954,0.7,0.48000635271491526,0.5199936472850847,4.785716203952662,4.9810679640297755,0.4850617193530032,0.5149382806469969,3.452034152841993,3.5567568136072873,1.785596849169824,0.3660236788714326,1.5802317969587385,1.725750023320668,1.0,0.5941147155456221,-0.10243493860668135,0.0005419436527174382,0.028369253136158117,0.16326671715531216,4.003539122804026,0.6488277456010884,0.0,0.0,1.766313353661463,1.2565019154908164,1.5647553530153562,0.5481192036674126
0,111.2242303955691,69.96296296296296,3.0712480590326487,1.1574206847596227,1.1683414615094971,0.04389819883212362,0.016543334297781796,70.0,3.7064999999999997,0.05295,5.0,67.0,72.4,0.0,0.0,65.0,77.0,1.8,0.0,0.8261421701747672,4.210576564706653,0.1962064238659258,10.928139564114197,5.096673086928757,1.7455163427430282,85.83972903117333,0.6296296296296297,0.7586206896551725,0.9090909090909091,0.4444444444444444,51.21951219512195,51.157552230744855,51.28244317881918,51.724137931034484,0.5492957746478873,0.4507042253521127,0.6123724356957945,0.554700196225229,0.44563051984586244,0.5543694801541378,2.8107940935272713,3.135026566242956,0.449474362323273,0.5505256376767269,2.034153808861045,2.2512312052232004,1.522589947379292,0.9839601215205329,0.8846433577260076,1.376623418486274,1.7731639456981245,-0.018623255367802294,0.0,0.00014429152800168445,0.050321651290435,0.4300750556849686,3.348037599091174,0.7859059761405387,0.5609233937914635,0.519860385419959,1.5501930724258721,1.422206738613078,1.6179225064855705,0.42628796312321987
0,109.1754196216537,71.4074074074074,2.4068966829110563,1.0728203000626038,1.0626253874618161,0.03370654068392039,0.015023935737391235,72.0,1.4826,0.020591666666666664,3.0,69.0,73.0,0.0,0.0,65.0,76.0,1.3846153846153846,0.0,0.7513896173352325,3.1665202522615554,0.23729190324886876,7.474761369043004,4.214218801014937,1.5805674423746994,53.377636723500835,0.7222222222222222,0.7428571428571428,0.9230769230769231,0.45454545454545453,37.2093023255814,37.06325124119133,37.34302033325329,60.0,0.36065573770491804,0.6393442622950819,0.4599331055038999,0.6123724356957945,0.3820795683742069,0.6179204316257931,1.9573080274301953,2.489135551499737,0.3808956015265665,0.6191043984734333,1.421723105210917,1.8125666599796957,1.4844902577771462,1.096605055824856,0.38788520195229026,0.9361877298647182,1.0025547694834787,-1.5529876678651986,0.0,0.0012770530672326697,0.11761655024106533,0.5136119816798383,3.055893114755649,0.8638196834622126,0.7037613852984619,0.6597643324038145,1.7570413795289446,1.4443694702727885,1.522942694361601,0.8525759262464397
0,116.25423438702774,67.08771929824562,3.6414317325272814,1.1338934190276817,1.1390358191920908,0.05427866337710644,0.016901653997013037,66.0,4.4478,0.06739090909090908,6.0,64.0,71.0,0.0,0.0,62.0,75.0,1.3902439024390243,0.0,0.8054199517651016,5.087736720297633,0.1583061380813716,12.873507364108775,6.316874456794505,1.8166669957441206,128.55437652537427,0.631578947368421,0.6756756756756757,0.88,0.18181818181818182,56.25,56.07425342238515,56.415305911443006,45.94594594594595,0.5972222222222222,0.40277777777777785,0.625227231419978,0.5134553180524705,0.4991782121623705,0.5008217878376298,3.594615478182969,3.600528363875551,0.5015962680489485,0.4984037319510516,2.579938906922184,2.571715464695571,1.664766825431318,1.254637592726506,0.6956985376587665,1.3230173340220195,1.5767678229544027,-0.16735028208716685,0.0,0.0008351013212501605,0.12589008378617222,0.510410630734337,3.3740788921338214,0.6714847790519674,0.8911523008537114,0.8951069364716093,1.5901038224751147,1.4336370700638221,1.7119137740655785,0.3069942112718285
0,108.63292498196559,71.77358490566037,1.9674418125885262,1.0830867569483633,1.0921010787533256,0.027411781300523633,0.015090325477987188,72.0,2.9652,0.04118333333333333,4.0,70.0,74.0,0.0,0.0,68.0,75.0,1.358974358974359,0.0,0.7722320785276203,2.6806875932959224,0.2880723887628234,6.503451642274285,3.4713496989234987,1.5201140252700949,37.22241627958304,0.6415094339622641,0.7647058823529411,0.9230769230769231,0.15384615384615385,53.48837209302325,53.44321473573876,53.53194822608886,50.0,0.5737704918032788,0.4262295081967214,0.5857791861290059,0.5048781642974012,0.46717827626918557,0.5328217237308147,1.8322617874961407,1.9567582157569,0.47536754910746726,0.5246324508925329,1.3602059610258501,1.4289514819818832,1.4422834503060769,0.305024939604966,1.1372585107011108,1.2897709805035937,0.9841344719818881,-0.5949952632058928,0.0,0.00013560536802181998,0.01302977111010803,0.5727330817525522,2.7874638933022347,0.9120256253278699,0.6531926156370169,0.6645023137577815,1.993170509851446,1.4930432196750583,2.506596814134705,0.6484438250448905
0,110.80432883451302,70.34545454545454,2.382172847370122,1.0540925533894598,1.0580627842174168,0.03386392003240028,0.014984515491450063,71.0,2.9652,0.04176338028169014,4.5,68.0,73.0,0.0,0.0,66.0,74.0,1.9642857142857142,0.0,0.7481633696412542,3.2621326511903614,0.22934792960312245,7.667396654850182,4.360187605488572,1.5916180410094318,56.894041412719154,0.8,0.861111111111111,0.967741935483871,0.4444444444444444,43.18181818181818,43.23065121209413,43.13544711197286,55.55555555555556,0.41666666666666663,0.5833333333333334,0.485642931178632,0.5746204653902286,0.49064223798266327,0.5093577620173366,2.2849888411528116,2.328161383961471,0.4869060980172089,0.513093901982791,1.6518206713800143,1.6956597696788522,1.2397937338224663,0.48051240841685416,1.4312941221269684,1.1910379179185413,1.4245632803223511,0.13851018424753558,-1.0,5.821542427876739e-05,0.013823894708833695,0.5659649654704912,3.0598413623172003,0.8380279485949109,1.0114042647073518,0.9776502206887727,2.0310341057533017,1.6482603542503633,1.7463099812477785,0.7358094180849567
0,118.36364828009147,65.89655172413794,1.9707479671204167,1.0841764600337107,1.0936705574443117,0.029906693378593446,0.016452703998418423,66.0,1.4826,0.022463636363636363,2.75,64.0,67.0,0.0,0.0,62.0,71.0,1.0545454545454545,0.0,0.7733418675529443,2.6992642643732205,0.2865009839014474,6.557930362313736,3.4903894094269043,1.5237369106111711,37.68593360645117,0.6551724137931034,0.7647058823529411,0.9615384615384616,0.3,51.11111111111112,51.104611885126495,51.116773129847815,47.05882352941176,0.4925373134328359,0.5074626865671641,0.5428101483418094,0.5509731650193397,0.5621203274773336,0.4378796725226661,2.023764858636371,1.7861700271449013,0.5568407389243777,0.4431592610756221,1.4815983025426203,1.3217365082425176,1.5104907478169272,0.5011029817011077,1.1230254208362238,1.3735769116867775,1.2213643251016109,-0.11594224438586398,0.0,0.00014912738732501517,0.019364307393561504,0.5683675068012097,2.9457295212591577,0.9965502772281307,0.9227577592133812,1.0228307229559943,2.0601164054104752,1.4347147081777902,2.1903742581287626,1.110996395627643
0,118.51286718724337,65.8103448275862,2.59862917000837,1.1239029738980326,1.1316809419557994,0.03948663658907138,0.01707790738435575,65.0,1.4826,0.02280923076923077,3.0,64.0,68.0,0.0,0.0,62.0,72.0,1.1372549019607843,0.0,0.8002192681965252,3.5758869415218326,0.22378203821398404,8.989647371008447,4.468633890284723,1.6607127663414278,63.91731829884419,0.5689655172413793,0.5750000000000001,0.8260869565217391,0.15384615384615385,54.0,53.88984735909111,54.10811631689645,47.5,0.5694444444444445,0.4305555555555555,0.6050383695034791,0.5261042808091512,0.46514675187576937,0.5348532481242307,2.438814540115368,2.61517706044318,0.47013926062707406,0.5298607393729263,1.7767790787897018,1.8862577729135996,1.8003238257448206,0.8831483843387291,0.9651683919406748,1.4067425841100394,1.0959859010691666,-0.7756780873155069,0.0,0.0006555184891365329,0.07317161307689739,0.4699482869290308,3.1871212464968033,0.9165326311684332,0.8308089600481109,1.0426334251449119,2.036106335516365,1.353608692004654,2.1027028627844264,0.7069977063085001
0,111.50470115436615,69.96363636363637,3.9438824468040066,1.3333333333333333,1.3375196335347177,0.05637046116793668,0.019057519057519054,69.0,4.4478,0.06446086956521739,6.5,66.0,74.2,0.0,0.0,65.0,79.0,1.6176470588235294,0.0,0.945769202842545,5.479649154530198,0.1725966710953835,16.28125181680505,5.79385450283315,1.918657903403804,126.99315971168261,0.6,0.6857142857142857,0.9166666666666666,0.25,57.40740740740742,57.27457351779526,57.529732114506984,45.714285714285715,0.5937499999999999,0.40624999999999994,0.7333047450116518,0.6065678266293776,0.5201997869215335,0.4798002130784667,3.95219020777919,3.7956221385008564,0.5223532542121012,0.47764674578789873,2.8423180053894677,2.7179654106132127,1.4487560308332528,0.8074655090694565,0.8291719278070744,1.2329046823418026,1.4073511641994294,-0.007246974466518452,0.0,0.0003870309482128452,0.05451037594497072,0.3239649763940817,3.5295693238525816,0.7211593497377675,0.8081975519645642,0.8459658451796802,1.5334492917891178,1.4921543977805583,1.6635355562918666,0.6306937869299629
0,103.19052193832201,75.56862745098039,2.2472641318793327,1.3564659966250536,1.3702375780893485,0.02973805675294395,0.017950120868676114,76.0,1.4826,0.019507894736842103,3.0,74.0,78.0,0.0,0.0,71.0,79.0,1.0851063829787233,0.0,0.9689042833036096,3.0594117081556704,0.3166962722672268,9.312551187020569,3.1575995285356715,1.6760387828515075,38.64158786907544,0.7058823529411765,0.6944444444444444,0.88,0.2727272727272727,50.0,50.00107071129999,49.99896508840161,47.22222222222222,0.4565217391304347,0.5434782608695652,0.6546536707079771,0.7142857142857142,0.5111355311355311,0.4888644688644688,2.187287948905807,2.1391052869298948,0.5061572606214333,0.4938427393785669,1.6144348856488453,1.5946748117099112,1.477549128571047,0.3910378786794819,1.086511249891565,1.282030189231306,0.9969651662164998,-0.5769953345034657,0.0,0.00016496134399419192,0.01497943831430923,0.5450539948105417,2.9675592277969725,1.1759262378104949,0.9985774245179971,1.155245300933242,2.0481509874751684,1.5391311925219415,2.4913897308091557,0.778568184192166
0,107.00695650841473,72.82692307692308,4.544857701114369,2.0484331649757452,2.0593164675992592,0.06240628477896677,0.028127416049310468,72.0,4.4478,0.061775,6.25,69.0,76.0,0.0,0.0,65.0,85.0,1.793103448275862,0.0,1.4561566388485632,6.242579909105579,0.23326199424769517,28.557624418043126,4.287024996185725,2.16269218753913,107.04838444408972,0.4807692307692308,0.44999999999999996,0.7222222222222222,0.15384615384615385,43.421052631578945,43.24796099978742,43.604816745581104,57.49999999999999,0.40654205607476623,0.5934579439252337,0.9327379053088813,1.1269427669584644,0.5043620559733057,0.4956379440266944,4.433383631805276,4.394873547078423,0.4992699665003846,0.5007300334996156,3.2035051448966754,3.2081858966407855,1.674233968290651,0.302979411472144,1.4228835044728507,1.5300257801262758,1.0,0.7617901784965122,-0.14637110114897783,0.0004117706824754539,0.019769523515751012,0.23509732160271346,3.9176854026749837,0.8016698987504496,0.0,0.0,1.785919484260396,1.4530530988678594,1.8848646339813704,0.7673668851343778
0,108.43276312410133,72.01886792452831,3.3996072512850417,2.0143714423343844,2.033931618332902,0.047204397253892375,0.027970051465476122,72.0,4.4478,0.061775,6.0,69.0,75.6,0.0,0.0,67.0,81.0,1.65625,0.0,1.4382068397929237,4.546786278244247,0.31631283103728614,20.54356276157811,3.1614272387265965,2.0196458731527964,57.49733595483875,0.5660377358490566,0.5384615384615384,0.8571428571428571,0.15384615384615385,50.66666666666666,50.723465764477595,50.612729226133354,46.15384615384615,0.48341232227488146,0.5165876777251184,0.9999999999999999,1.033744383772116,0.5473364619074647,0.4526635380925354,3.363812119153908,3.059090303842543,0.541521852255502,0.45847814774449813,2.481454409511356,2.2832718780342227,1.5408448411323061,1.0792001552824493,1.8320192536637676,1.6898195566694603,0.7062894232385402,0.6181441392525615,-0.6317639701016265,0.000623988992758342,0.09339675600407882,0.23005720551729691,3.45962027560675,1.036995415304947,0.0,0.0,2.0842289915264574,1.431675474721789,1.7384817106260697,0.6484438250448905
0,110.8101345863141,70.43636363636364,3.5159090092913607,1.8609038027160252,1.8738145565431676,0.0499161062238061,0.026419646140779914,70.0,2.9652,0.042359999999999995,4.0,67.8,72.0,0.0,0.0,65.0,82.0,1.8333333333333333,0.0,1.3249869796177371,4.725316534603926,0.2804017402675008,19.66945782924111,3.5663116749775114,2.000762499112752,67.40780610128903,0.7090909090909091,0.7027027027027026,0.9230769230769231,0.4,55.223880597014926,55.00610631966695,55.43822464025786,43.24324324324324,0.6256684491978609,0.37433155080213915,1.0506062939587122,0.812636055372001,0.48857996437392254,0.5114200356260775,3.3029251553550942,3.379245739854351,0.4986180300250653,0.5013819699749348,2.4508251841760496,2.4576085051136953,1.3309298371946436,0.7944894364300672,1.273345870220762,1.1983574424275474,1.0278009325548427,1.2689847630454891,-0.5943856826217416,0.0009134454185747051,0.07152890849282317,0.40883658869272077,3.2742630696713735,0.9070135462506947,0.7099320062693525,0.751695527435144,1.650628092484584,1.4951966975364044,1.8279756020032771,0.8409250492399505
0,102.98007117652672,75.74,4.054777982799541,2.1189138534559038,2.1404748662530997,0.05353548960654266,0.02797615333319123,76.0,3.7064999999999997,0.04876973684210526,4.75,72.8,79.2,0.0,0.0,66.0,85.0,1.5151515151515151,0.0,1.513544292886935,5.586670238499987,0.2709206429361973,26.564279724697837,3.691117772208681,2.1312681547198755,82.48423121918644,0.5,0.44999999999999996,0.7777777777777778,0.16666666666666666,51.24999999999999,51.266035539317286,51.2303485060193,42.5,0.4590909090909091,0.5409090909090907,1.0257111354242643,1.1133657679906155,0.5870222952956247,0.4129777047043753,4.2803603786993945,3.5901809678903174,0.5782714364966269,0.42172856350337307,3.112359900852804,2.6579110891389117,1.6444168142159934,0.21360075303455872,1.4308160611814347,1.537616437698714,0.980297847209441,-0.18851338486623925,0.0,0.00031420264758465823,0.012216636017924326,0.22648214226593577,3.697014811252441,1.062975031573304,0.0,0.0,1.8785581610960573,1.4117382143936401,2.0400706971605427,1.0158941141594504
0,105.3771415052543,74.03846153846153,2.2048212631443103,1.3357820651177332,1.3477650345053822,0.02977940407363744,0.01804173178860315,74.0,1.4826,0.020035135135135135,2.0,72.2,76.0,0.0,0.0,69.0,78.0,1.1063829787234043,0.0,0.953013795344877,2.9417881716838195,0.32395731430227054,8.807658298675328,3.0868264300615333,1.6518305673925202,36.32315791998404,0.6923076923076923,0.7058823529411764,0.9583333333333334,0.3333333333333333,52.941176470588225,53.04830030911404,52.836129822185626,50.0,0.5604395604395604,0.43956043956043944,0.714142842854285,0.6324555320336758,0.509957857531267,0.4900421424687331,2.100770166895381,2.0593402712862137,0.5147610554154621,0.4852389445845378,1.5689543164346191,1.523299437559992,1.607058942124774,0.21864397644266198,1.388414965682112,1.497736953903443,1.0002612691551651,-0.32866274410936724,0.0,4.332703637399707e-05,0.004473759468464768,0.4921056236964376,2.963044577884137,1.1473643111817184,0.9520851150466839,1.0521685222520867,1.9830542340043038,1.5669601179408537,1.8908084473238318,0.8769907258678603
0,102.44720336727597,76.22,5.207098765245422,1.83503322552359,1.8539349583876918,0.06831669857314907,0.024075481835785752,75.5,4.4478,0.058911258278145695,5.75,71.8,80.0,0.0,0.0,68.0,89.0,1.6129032258064515,0.0,1.3109299809547366,7.25817624813421,0.18061423918876657,29.892131107856343,5.536662028927095,2.18252698837978,160.7442753292208,0.42,0.39473684210526316,0.6666666666666666,0.0,50.724637681159415,50.774782514647974,50.675221597921585,55.26315789473685,0.6000000000000001,0.4,1.0155048005794949,0.8291561975888498,0.4333053908212843,0.566694609178716,4.777762483805472,5.463891296257692,0.4385720641906864,0.5614279358093136,3.4538575789730412,3.9077876156030134,1.882822194101563,0.5622526995039587,1.9099769239978301,1.9349766388130205,0.4117854787697883,0.040355615407609235,-0.45553651438713216,0.0001026081121484205,0.012996531110670097,0.5483627977195291,3.9562453816226486,0.7095445292689307,0.0,0.0,1.6823089728562115,1.298480606467368,1.5273507186435624,0.7901398665684615
0,109.63900980927241,71.12962962962963,2.754387897596538,1.3388251678948522,1.3482774044540662,0.03872349556631425,0.018822327275793287,71.0,2.9652,0.04176338028169014,3.75,69.0,73.4,0.0,0.0,65.0,76.0,1.8,0.0,0.9533760956100674,3.780967922703244,0.2521513313787758,11.324450141936206,3.9658723772424715,1.7609872340135204,59.97934497555458,0.48148148148148145,0.4358974358974359,0.7647058823529411,0.0,45.61403508771931,45.58308502757994,45.64832356939404,53.84615384615385,0.4421052631578947,0.5578947368421052,0.6354889093022424,0.713873507433484,0.4434139454741452,0.5565860545258547,2.51772137329513,2.8207795941838083,0.44333534617002485,0.5566646538299751,1.8361327658142355,2.057475747558055,1.6994435705343596,0.3257656985110433,1.773742973542563,1.7762766423308198,0.8197318807691243,0.01945245278309038,-0.4922224199790298,4.1924975506281094e-05,0.007718223688890721,0.37525155910738484,3.2940212459730915,1.0350196311699669,0.7271802241410903,0.772760613339579,2.0931139328006814,1.4168721648475382,1.9785354843366816,0.7460039354656347
0,109.19900618867979,71.55555555555556,3.9604967606595727,1.4406497485902698,1.4419085078942706,0.05534855721418657,0.02013330393992613,70.0,2.9652,0.042359999999999995,6.0,68.0,76.4,0.0,0.0,66.0,80.0,1.7419354838709677,0.0,1.0195832837826149,5.465653410054365,0.18654371349398705,17.507118357685037,5.3606738134985905,1.9501847777844477,117.19834043575082,0.7037037037037037,0.7435897435897436,0.9310344827586207,0.3333333333333333,58.62068965517242,58.51836232040597,58.71269364804903,41.02564102564102,0.5272727272727272,0.4727272727272727,0.7467879938056768,0.7071067811865475,0.5798854279653025,0.42011457203469754,4.162106476636959,3.542631349149326,0.5780863286231767,0.4219136713768234,2.9900520589578057,2.5544311378441553,1.3533408773717668,0.2867676062605553,1.2305004308755825,1.3738842340058601,1.365008456341756,-0.2301802052873807,0.0,0.0002488084263136463,0.007443158906598637,0.38372532540512605,3.4662984479880263,0.6892040697602161,0.7503448192158425,0.7650676986728905,1.7024247203708596,1.5417691875620971,1.657911142087304,0.42628796312321987
0,98.53723264461762,79.0625,3.7891572632918584,2.786746749672189,2.8148213516035274,0.04792609977286145,0.03524738971917393,78.5,3.7064999999999997,0.04721656050955413,5.0,76.0,82.6,0.0,0.0,72.0,89.0,2.0,0.0,1.9903792655475372,4.957404128087269,0.4014962698462696,30.99845407185198,2.490683164710082,2.198310145576539,49.389292009964905,0.5,0.48837209302325585,0.7619047619047619,0.16666666666666666,47.524752475247524,47.621797096498206,47.42836993979822,48.837209302325576,0.4657534246575342,0.5342465753424657,1.3593476696403026,1.4558726652394103,0.5114948397257623,0.4885051602742374,3.5454792859159245,3.464885614608048,0.5051369753793752,0.49486302462062487,2.6849813271059646,2.6575362217389524,1.4030959300589632,0.39966396594676024,1.4575530094857259,1.2577210265123457,1.1089141588535254,0.07834787056730619,-1.0,0.0009267664900083104,0.03436383268735389,0.10760923282678414,3.6883882832282935,1.2439985381228573,0.0,0.0,2.223195416640987,1.6508984889986282,2.1389988841884358,0.930827083453526
0,100.66436465074284,77.34693877551021,3.5563969384298866,2.2407216099581255,2.259632650744819,0.04597980210634945,0.028969751685474443,77.0,4.4478,0.057763636363636364,5.0,74.0,80.0,0.0,0.0,71.0,86.0,1.4411764705882353,0.0,1.5978015703321948,4.7241035398601445,0.3382232325880599,23.713307006877365,2.956627172971152,2.0819622339394765,55.869651575518844,0.5306122448979592,0.5365853658536586,0.7727272727272727,0.07692307692307693,45.783132530120476,45.929632106901494,45.63713051604455,36.58536585365854,0.28215767634854777,0.7178423236514523,0.8505317485662418,1.356622840702195,0.6004869283479816,0.39951307165201844,3.660759403217409,2.985966317136626,0.5676850899227707,0.4323149100772293,2.657495405787546,2.3190968478040497,1.2141929485450014,1.3732754696000136,1.406292108057376,1.5390953019794402,-0.5329014526756453,-0.5968012370667619,-0.4032945706364761,0.00011627043041606907,0.08652460307466248,0.3531723292427764,3.573622732516335,1.1419308936293762,0.0,0.0,1.8026720715303857,1.6487842505361037,1.918991860629592,0.9166873214881973
0,99.51524433230286,78.40816326530613,3.1879876577744852,2.4579802006254377,2.480777160316689,0.040658874344338826,0.0313485241620631,78.0,4.4478,0.05702307692307692,5.0,75.0,82.0,0.0,0.0,73.0,84.0,1.8148148148148149,0.0,1.7541743526726379,4.1564058054836455,0.42204116603780933,22.905541988316514,2.369437108204779,2.0669106824218653,39.3933686090829,0.5918367346938775,0.5789473684210527,0.8181818181818182,0.18181818181818182,53.33333333333334,53.32984943414003,53.33428855308235,39.473684210526315,0.48965517241379325,0.5103448275862069,1.2290802650243555,1.254778101939296,0.5451112707617041,0.45488872923829565,3.0687430335801285,2.803306157684456,0.5367084657697276,0.4632915342302724,2.3375010271675722,2.171749697688245,0.7765784459447478,0.47469136831192205,0.8539451638671522,1.0139241301007087,-0.025105515736722595,-1.0228664815272346,-0.16298319937337982,6.9576187984916e-05,0.014529144737397262,0.27742993466787746,3.4362390607641053,1.2010846335096974,0.8502993454155388,0.8502993454155388,1.9997400900098048,1.8381922037295964,2.668261147269004,0.8021014063021725
1,101.50297233850281,76.74,2.655836852623877,2.0152479970951265,2.036027544819889,0.03460824671128326,0.02626072448651455,77.0,2.9652,0.03850909090909091,3.0,75.0,79.0,0.0,0.0,71.0,83.0,1.3157894736842106,0.0,1.4396888836247408,3.5092806984349614,0.4102518457035371,15.872181890506916,2.4375271201647104,1.9076067416866398,34.2158674988231,0.54,0.5348837209302325,0.8260869565217391,0.07142857142857142,49.382716049382715,49.38553683384146,49.3803658994031,41.86046511627907,0.3819095477386935,0.6180904522613068,0.8897565210026092,1.131923142267177,0.5100835984316047,0.48991640156839544,2.5063330862753657,2.4562869297070247,0.49161718735158844,0.5083828126484118,1.8806079078352915,1.9124062697357957,1.2963599103164096,0.6859349953695242,1.4317859370480597,1.2588783152030367,0.6984254798920766,0.6602504363712001,-0.75207581332379,0.00012460779895833126,0.026636203273006802,0.3497381515663598,3.2799197518069736,1.260646349017243,0.0,0.0,2.0399827185896937,1.718945467517429,3.018949561721581,1.0158941141594504
1,108.34051293319604,71.94339622641509,3.7795761582668677,1.6927446988204145,1.7038462389644153,0.052535414735941255,0.023528840555332275,72.0,5.9304,0.08236666666666666,7.0,68.0,76.0,0.0,0.0,67.0,80.0,2.0384615384615383,0.0,1.2048012296709325,5.213593874284116,0.2310884312668802,19.73342514129619,4.327347736612209,2.0021725824852634,90.24413460599457,0.6037735849056604,0.6774193548387096,0.8571428571428571,0.3333333333333333,44.0677966101695,43.89906358201854,44.240205995758345,48.38709677419355,0.3355704697986578,0.6644295302013423,0.7001400420140048,0.9851843661437779,0.5512255612058969,0.44877443879410306,3.8708101560355233,3.492619335384991,0.5402269655843928,0.4597730344156073,2.7814894699152757,2.566025921264165,1.0835919140113648,0.3914273570060749,1.0841182556351763,1.2460551496564354,0.771678995387747,-0.16182011889631953,-0.0862913229676331,0.0002116420959831827,0.01711846322689496,0.3639230296530367,3.1594459947621005,0.8502915823798428,0.6156335885532274,0.5155474344606675,1.2987693299178409,1.7282217790973327,2.02301315112658,0.32422191252244525
1,110.67052352157442,70.55555555555556,2.646939611735806,1.2053340568818443,1.2167195182402408,0.037515679536413,0.017083474821947397,70.0,2.9652,0.042359999999999995,4.0,68.0,73.0,0.0,0.0,67.0,76.0,1.7419354838709677,0.0,0.8603506221497035,3.6560187567204867,0.23532445520642054,9.881747782471585,4.249452098477508,1.7018038749089652,62.144306311276,0.6666666666666666,0.7575757575757576,0.92,0.25,48.93617021276597,48.899920734560666,48.97261011568833,45.45454545454545,0.42857142857142866,0.5714285714285713,0.563300712149108,0.6504436355879908,0.5607230331271954,0.4392769668728048,2.737679558786305,2.4231351144531,0.5537871855740221,0.4462128144259778,1.9763852178793575,1.7740716876683087,1.399300095619435,0.20286409428452168,1.4755161329667554,1.3740840858244945,1.1581889532256193,0.09125306505923891,-1.0,2.03655680404958e-05,0.0031965869981336026,0.5386653768471938,3.0911060624073365,0.9244435697495063,0.6815171766512222,0.6481343284950916,1.7831295801612645,1.5083706994429622,1.9216782464812918,0.42628796312321987
1,110.77381552565319,70.45454545454545,2.904773732618504,1.4076510510355476,1.4197616949475187,0.04122904652748845,0.019979563305020674,71.0,4.4478,0.06264507042253521,4.0,67.8,73.0,0.0,0.0,66.0,77.0,1.896551724137931,0.0,1.003923122166297,3.992327547344157,0.251463115253192,12.59147173872591,3.976726363996266,1.807046605014199,63.505576844928235,0.5454545454545454,0.47368421052631576,0.7222222222222222,0.21428571428571427,52.542372881355924,52.47097541875064,52.612700085405095,42.10526315789473,0.45794392523364486,0.5420560747663552,0.6799001036500849,0.7397092748646286,0.5268817204301076,0.47311827956989244,2.8978955712962406,2.7460663690349243,0.5227757676964467,0.4772242323035532,2.1047639883228904,2.010976170229947,1.586749076823509,0.5230690600597785,1.7775910870994958,1.8482836068533983,0.315983485660114,-0.6766158180550801,-0.36485050416512205,0.00031481349070466624,0.028222098774141814,0.4088365886927212,3.353909258900533,1.0120573166492877,0.6314321610770639,0.6699698310338784,1.9540447996189365,1.468586790023335,2.342044284838505,0.8409250492399505
1,106.49288094965544,73.23076923076923,2.6687397673248996,1.5965649400644926,1.61245154965971,0.03644287497397447,0.021801832164746224,73.0,2.9652,0.04061917808219178,4.0,71.0,75.0,0.0,0.0,69.0,80.0,1.3,0.0,1.1401754250991378,3.5782019802918765,0.31864479181975436,12.817000479885259,3.1382907415152834,1.814756510538298,44.91775258408659,0.6730769230769231,0.6842105263157895,0.8846153846153846,0.3076923076923077,50.0,50.00017149862963,49.99974522011066,52.63157894736842,0.5000000000000001,0.5000000000000001,0.8062257748298549,0.8062257748298549,0.4580133073168622,0.5419866926831378,2.4216083191158457,2.6342631912080527,0.4618834520795304,0.5381165479204695,1.8047419277020014,1.9479916016956584,1.3172347409113425,0.42684566200886787,1.3498926154476534,1.2774372048362193,1.0123965080943074,0.5974419927976045,-0.6697461566563345,0.0002993773395936767,0.020936444290013304,0.3688339540872221,3.302972593133431,1.1393506284740518,0.0,0.0,2.0788842500092803,1.61138512954846,1.865832950731131,0.7673668851343778
1,106.02446356534372,73.67307692307692,2.5027134595541463,1.4280110945908333,1.4416765838942587,0.0339705298608237,0.019383079331433916,73.0,2.9652,0.04061917808219178,4.0,71.0,76.0,0.0,0.0,69.0,79.0,1.1063829787234043,0.0,1.0194192887494868,3.403458448661406,0.29952452898328424,10.899916532971078,3.338624730984245,1.744393282268573,45.45148219031297,0.6346153846153846,0.6896551724137931,0.95,0.25,52.083333333333336,52.12971897804364,52.035934606763604,44.827586206896555,0.49038461538461553,0.5096153846153847,0.714142842854285,0.7280109889280517,0.5583903884527607,0.44160961154723916,2.5432521479179506,2.261724546419265,0.5527876761142481,0.44721232388575194,1.8679041045901243,1.680088974411092,1.4269556838158923,0.3101702147050043,1.346868228289389,1.3435245860919172,1.0,0.5737462951282026,-0.5107800234805002,0.00018542250118949382,0.012351381238709484,0.4887695841173283,3.0722033623641996,1.0893007725944384,0.5994738181995927,0.8741268903666201,1.8895320327616125,1.387691232298346,1.8372448944759818,0.6577430444008953
1,106.83588095180009,72.98076923076923,3.226668193659811,1.1631599960755994,1.1732308333125643,0.04421258130969965,0.015937897179428503,74.0,2.9652,0.04007027027027027,4.25,69.2,76.0,0.0,0.0,67.0,78.0,1.3,0.0,0.8295994781324582,4.5221459420908365,0.18345261049865383,11.785904479985998,5.450999019756866,1.7783330269531377,98.60085239013854,0.6346153846153846,0.6285714285714286,0.9090909090909091,0.18181818181818182,46.666666666666664,46.6281279294008,46.70925635963317,54.285714285714285,0.4782608695652173,0.5217391304347827,0.5744562646538027,0.6,0.49147094356564436,0.5085290564343558,3.170249900097111,3.224797589384934,0.4910397687499217,0.5089602312500784,2.2782103095484563,2.3194093528852213,1.5421281158292581,0.6323107642736547,1.705243338456027,1.3890879563191998,1.3342933409566387,0.17315357401108944,-1.0,0.0004168599568023218,0.04151608831622623,0.4036909938959323,3.298326921591389,0.787054163195356,1.1127632593284438,1.1892148630996064,1.844661684182173,1.5142792413080883,1.8984483300973556,0.5481192036674126
1,105.55792408309519,73.86538461538461,1.7038462389644151,1.0936537072458306,1.1043585663801658,0.023066910811286017,0.014806038213169276,74.0,1.4826,0.020035135135135135,2.0,72.2,75.0,0.0,0.0,71.0,77.0,1.0,0.0,0.7808994311488692,2.299104685076602,0.3396537079053671,5.640319759630024,2.9441751310973934,1.4582738355597418,27.075867350368146,0.6538461538461539,0.71875,0.9130434782608695,0.3076923076923077,48.78048780487806,48.78839722741304,48.772999685298615,46.875,0.4262295081967214,0.5737704918032789,0.5099019513592784,0.5916079783099616,0.5093446014061088,0.4906553985938912,1.640833824656966,1.610449227017967,0.5007453445311079,0.4992546554688922,1.2149764689364166,1.2131666647255783,1.3227055226591444,0.5890679589672971,0.7381465891608006,1.0326805686444491,1.0090180509379065,-0.7811693578126553,0.0,0.000264386955145103,0.03063352608258201,0.681760246596613,2.666392232399126,1.1845730585515253,0.0,0.0,2.199362358777496,1.5814250339012312,2.4504257967119547,0.8769907258678603
1,106.65317988481866,73.17307692307692,3.06607722710865,1.321021589231488,1.332843047112185,0.041901712433547914,0.018053383085423754,73.0,2.9652,0.04061917808219178,5.0,71.0,76.0,0.0,0.0,68.0,79.0,1.2682926829268293,0.0,0.9424623568703668,4.263709146538317,0.22104283488369442,12.624129961631304,4.524010020619612,1.8081715667815728,77.15625161578737,0.4807692307692308,0.425,0.5882352941176471,0.08333333333333333,47.272727272727266,47.24694997969296,47.30153390434623,55.00000000000001,0.49438202247191,0.5056179775280899,0.6633249580710798,0.6708203932499369,0.47093581484193214,0.529064185158068,2.9259603128550666,3.1012855292397035,0.47203009816925845,0.5279699018307414,2.1214669161222997,2.2436546006317,1.6781172211323343,0.3094244333673244,1.4277349741066865,1.523405004448672,0.9869566913987269,0.9158083956542944,-0.19081294162567417,0.00018241068223742092,0.013673490274399427,0.3506189941916249,3.4004431535934505,0.9205699088802958,0.0,0.0,1.9566693242587774,1.3908841878962424,2.2909373585661053,0.7673668851343778
1,103.92382461817496,75.13725490196079,2.6231249138623745,1.6852299546352716,1.7004201161561725,0.03491110923981761,0.022428686765761704,75.0,2.9652,0.039535999999999995,3.0,73.0,78.0,0.0,0.0,69.0,80.0,1.1333333333333333,0.0,1.2023785950000463,3.423090857749493,0.3512552383113046,12.930327818099451,2.846932631688575,1.8185796454985594,38.981236256647456,0.6274509803921569,0.6,0.8333333333333334,0.3076923076923077,52.94117647058824,53.13257036562236,52.759854829988285,40.0,0.4647887323943662,0.5352112676056338,0.8206518066482897,0.8806305718527108,0.659967953183782,0.34003204681621835,2.780864643103887,1.9960818763625037,0.6384884369768742,0.3615115630231257,2.050204569185769,1.54270105030503,1.324299926189293,0.6468482460374032,1.7909035550783603,1.4674794320596587,2.135287305764365,1.1414835824750038,-1.0,0.00031980994525955135,0.0361163052545712,0.30458030901321775,3.1848170784299623,1.1673186717862576,0.9365068743668515,1.0810903023176388,2.2997954021290963,1.66055299694693,1.8714137097572976,1.1122402631316657
1,104.24536495663973,74.84313725490196,3.348865772285344,1.407124727947029,1.4178166600913722,0.044745128212353304,0.01880098536161867,75.0,4.4478,0.059304,5.0,71.0,77.0,0.0,0.0,69.0,82.0,1.3421052631578947,0.0,1.0025477748298715,4.649445874378527,0.21562736762988516,14.643879495651948,4.63763023679098,1.8726262563807399,86.24964308536373,0.6470588235294118,0.6944444444444444,0.88,0.16666666666666666,45.28301886792453,45.246178624120745,45.32689753653364,50.0,0.40404040404040414,0.5959595959595961,0.6388765649999398,0.7759128922285867,0.4899929195185273,0.5100070804814726,3.2545885974690423,3.3203915431767976,0.4861555806087939,0.5138444193912063,2.345262267218917,2.4111243037560843,1.4873968872841736,0.5161016009535802,0.9712952863305935,1.2293460868073836,1.0308441807864712,-0.3318510872062541,0.0,0.0006330918634902196,0.0377638615693604,0.3300428585031763,3.5216295680163783,0.8167996499211494,0.6597643324038147,0.7611306094308558,1.7895302252240195,1.4762660497386582,1.9355214594142323,0.6673441578789994
1,103.01830936682855,75.74509803921569,5.059024163828049,1.6792855623746665,1.6933242273042426,0.06679011968812593,0.022170220989155574,77.0,5.9304,0.07701818181818182,8.5,70.0,80.0,0.0,0.0,67.0,84.0,2.55,0.0,1.1973610438743005,7.104482632070245,0.1685359942283918,26.724368641226484,5.933450623282576,2.1338775638287495,168.61638760542974,0.5294117647058824,0.5277777777777778,0.7894736842105263,0.06666666666666667,53.96825396825397,54.057228083819474,53.866793603861126,44.44444444444444,0.5106382978723404,0.4893617021276598,0.857142857142857,0.8390957231764807,0.5414730653684887,0.4585269346315114,5.2278231314647154,4.8107731993423055,0.5406184667277323,0.4593815332722676,3.745986423589157,3.4530870542286696,1.6057778692304858,0.3512614991299887,1.8114463481516827,1.6358155985866882,1.5087160289955044,0.4766256972279752,-1.0,5.098888675297666e-05,0.00867209941287644,0.5512756571940525,3.708602245531866,0.7395543800083341,0.7409917898337662,0.7517199249500459,1.6649200751740787,1.4668178119502835,1.7357493156967576,0.44489610525266626
1,99.67998906781355,78.26530612244898,2.539484119233025,1.773649721149397,1.7893251233811927,0.03244712433961362,0.022662017297606377,78.0,1.4826,0.019007692307692305,3.0,77.0,80.0,0.0,0.0,72.0,84.0,1.6896551724137931,0.0,1.265243928490297,3.2686657112520527,0.38708269375324067,12.992557331499805,2.5834273041343585,1.8206647518468415,33.777440986145216,0.7346938775510204,0.7419354838709677,0.9565217391304348,0.5,45.90163934426229,45.68409405462888,46.110331118094955,51.61290322580645,0.4238410596026491,0.5761589403973509,0.8251369970070347,0.9620456927265029,0.48551364428402494,0.5144863557159749,2.277567342290939,2.344538874330021,0.4774530024344062,0.5225469975655938,1.7129162359117271,1.7919813682260062,1.1841361964355657,0.2618578350776195,1.1841361964355657,1.218285855336792,0.5688837658410222,-0.09730691401541502,-0.3695870265210753,4.7966703598845474e-05,0.003143809368381891,0.37374535087027105,3.070687257602187,1.2902688791266843,0.7838735539822874,0.8852398310093285,1.9467787437581425,1.6653448979060566,2.2688526504841993,0.9166873214881973
1,106.77602075332705,73.11538461538461,3.5350006026781866,1.4552137502179978,1.4691600908508984,0.0483482460124318,0.019902976068210385,73.5,3.7064999999999997,0.05042857142857143,5.0,69.2,76.0,0.0,0.0,67.0,81.0,1.5294117647058822,0.0,1.0388530628893144,4.827535400099691,0.21519325634937064,15.755401117841688,4.64698576974215,1.9043995743456712,89.73395322875896,0.5576923076923077,0.4864864864864865,0.7777777777777778,0.4,48.275862068965516,48.13002365051614,48.413237738250444,56.75675675675676,0.5370370370370371,0.46296296296296297,0.7615773105863908,0.7071067811865475,0.47536745734169,0.52463254265831,3.32843584856322,3.4966573811591717,0.47809876258245065,0.5219012374175493,2.4143824467139376,2.522559497932102,1.764201862638259,0.36372748573270286,1.804988364862282,1.6840872962770899,1.0117094392875794,0.6729584169055487,-0.8323946452428406,0.0001232874366999881,0.011729736579565036,0.3627148916094094,3.6111088928700514,0.8394500376081019,0.7489330683884976,0.8766394743299954,1.8026421551586254,1.3701728106189786,1.6686515019626227,0.8769907258678603
1,105.76337921447735,73.88461538461539,5.429237646097092,2.132843080923474,2.153701783569169,0.07348265424181384,0.02886721504633541,72.0,4.4478,0.061775,9.0,69.0,79.80000000000001,0.0,0.0,66.0,86.0,2.260869565217391,0.0,1.5228971358153214,7.472564197534504,0.20379846804364501,35.75115667959707,4.906808228734292,2.260260207327981,146.66575797683026,0.5,0.5128205128205129,0.65,0.18181818181818182,51.21951219512195,51.382393138735324,51.07089941823991,48.717948717948715,0.5172413793103448,0.4827586206896551,1.0954451150103321,1.058300524425836,0.5188427530573997,0.48115724694260026,5.382543301751748,5.1833814533605285,0.518778873463266,0.48122112653673393,3.8840553803487796,3.740818312284219,1.4004023469808238,1.130841119892729,0.2770408654477208,0.8424614253940853,1.0149592767192521,-0.5044522557797535,0.0,0.00485265427088729,0.23131772570837975,0.3320522901967853,3.666007988490692,0.736556158071545,0.15906225762590578,0.13297041304361987,1.0992543467156848,1.6010154556937288,1.5597291872150674,0.5481192036674126
1,103.68370709148088,75.37254901960785,5.2534209209379945,1.8601075237738274,1.8736627884702088,0.06969939307175799,0.024678845918955566,77.0,4.4478,0.057763636363636364,9.0,69.0,79.0,0.0,0.0,66.0,85.0,2.217391304347826,0.0,1.3248796633841804,7.284887908316414,0.18186685643737913,30.321395151983896,5.498527986842521,2.188719290195827,160.22464017955392,0.6274509803921569,0.5789473684210527,0.7727272727272727,0.2727272727272727,55.22388059701492,55.677331088381976,54.7910497524829,39.473684210526315,0.4335260115606937,0.5664739884393065,0.8748177652797063,0.9999999999999999,0.5751832211074406,0.4248167788925593,5.524919798106593,4.748142064136718,0.5706228344082981,0.4293771655917022,3.9553789260928705,3.431096986477101,1.4715346059143077,0.20025623728168096,1.5056827911135515,1.5263828037429712,0.833180840421381,-0.0394318098190416,-0.3966323700554556,1.4566381047104027e-05,0.0025399680769016683,0.5641942784841039,3.8146789030655333,0.725006128260915,0.7491998413244435,0.7014943743529297,1.7153614810913178,1.5329861545412635,1.505955182184477,0.44489610525266626
1,101.15951197238675,77.20408163265306,2.589880883978504,1.9364916731037085,1.9551713570582485,0.033545906242386125,0.025082762881861412,77.0,2.9652,0.03850909090909091,4.0,75.0,80.0,0.0,0.0,73.0,82.0,1.6333333333333333,0.0,1.3825149249575919,3.3770187028130203,0.4093891821818966,14.667401048939446,2.442663469196623,1.8733232769681398,32.995680880620526,0.6530612244897959,0.6388888888888888,0.8695652173913043,0.5555555555555556,53.03030303030304,53.15089544355287,52.91195779510475,33.33333333333333,0.3277777777777778,0.6722222222222224,0.7922496919962071,1.1345633708846727,0.6226679104477613,0.37733208955223885,2.6647821355201318,2.0744135290152976,0.5802715654952078,0.41972843450479225,1.9657979810061001,1.6718889813493736,1.2193002546549663,0.7671399546388145,1.3728718700412479,1.2404168439327776,0.7299819498522577,0.6719070927222806,-0.6726608362757391,9.546829894440573e-05,0.03340204057923727,0.46543960926491224,3.118859081492812,1.1299938379043355,0.798606857364899,0.9293248505243862,2.065929409203749,1.6833406942496527,2.060496637310153,0.9166873214881973
1,102.86326364302003,75.82352941176471,2.9373857925232847,1.833030277982336,1.8516401995451028,0.038739766076722915,0.02417495323948775,76.0,2.9652,0.039015789473684205,4.0,74.0,78.0,0.0,0.0,69.0,81.0,1.3421052631578947,0.0,1.3093073414159542,3.8946326226367125,0.33618250250508547,16.019832579098793,2.9745747995461866,1.9116280829863215,46.339504211142554,0.6470588235294118,0.5897435897435898,0.8260869565217391,0.3333333333333333,49.99999999999999,50.001749994647646,49.998049738745884,46.15384615384615,0.4523809523809524,0.5476190476190474,0.8806305718527109,0.9689042833036096,0.46421452020881554,0.5357854797911845,2.6535413380335835,2.8507686038423143,0.46301291040085096,0.536987089599149,1.9769663422444363,2.129044051077518,1.412982002734591,0.4202910217810718,1.449737812181851,1.522918834520465,0.373369075556095,-0.3354497095960154,-0.32588011985482346,9.829968904191123e-06,0.006994132011934753,0.2774202562239303,3.3608505299728537,1.1194324505131354,0.0,0.0,2.19512356285833,1.6454072657470558,1.9240225506251207,1.1122402631316657
1,102.72992737918865,75.78,3.5184064110715503,1.9219462924391015,1.9170733079429205,0.0464292215765578,0.025362183853775422,76.0,2.9652,0.039015789473684205,3.75,73.0,78.0,0.0,0.0,70.0,87.0,1.2195121951219512,0.0,1.3555755360781652,4.522900911258307,0.29971373741659824,19.26152499035896,3.336517066650211,1.9916607784553568,60.36294432472453,0.74,0.7567567567567568,0.9285714285714286,0.3,39.436619718309856,39.857461929080976,38.98597117230921,48.64864864864865,0.26519337016574585,0.7348066298342543,0.7071067811865475,1.177037240985461,0.4829060318478308,0.5170939681521692,3.1430290007345714,3.2523839492905298,0.4645335417057867,0.5354664582942132,2.278006946813218,2.4457532602727254,1.2415477030588338,0.40475796131038777,1.327142946052509,1.2559249185749346,0.8905897106676042,0.3958551069311955,-0.6759521350661243,3.797309322885659e-05,0.00991541719622699,0.31076789636463564,3.436762012601908,1.0247101768423341,0.9516656224425799,1.023586140555525,1.8923904348118095,1.631642548850131,1.5805284980699055,0.7901398665684615
1,100.6968050015616,77.46938775510205,4.072785905742359,1.8200274723201295,1.836272627667408,0.05257284230278598,0.023493505306555938,78.0,4.4478,0.05702307692307692,6.0,74.0,81.0,0.0,0.0,69.0,86.0,1.8846153846153846,0.0,1.2984408271308643,5.646010799074195,0.22997491031079434,23.031050087168193,4.348300423940041,2.069283849778645,98.20220460473749,0.5714285714285714,0.5675675675675675,0.9047619047619048,0.2,53.846153846153854,53.81467234824954,53.86885288196692,35.13513513513514,0.47169811320754723,0.5283018867924527,0.8932370012631204,0.9453131868733217,0.6429793617741194,0.35702063822588065,4.5273098749426195,3.373559431744081,0.6343487490894366,0.36565125091056333,3.263005289926641,2.477349416290125,1.678694483914767,0.9248444805778604,0.8466833675329148,1.309105607821845,1.1856667283920164,-0.7852127066257086,0.0,0.0003763432699825468,0.06261460531720059,0.25883531295829476,3.8239219673426685,0.8163879905953283,0.6412373393653841,0.7131578574783293,1.7241180325607928,1.4974125914102712,1.9361824889889347,0.5729295759301233
1,103.88089568280833,75.01960784313725,3.4437781350048167,1.7320508075688772,1.7421544250772738,0.045905040482291076,0.023087974695769144,75.0,4.4478,0.059304,5.5,72.0,78.0,0.0,0.0,69.0,83.0,1.3783783783783783,0.0,1.2318892078462913,4.621688003316537,0.2665452983763257,17.886367406229315,3.7517075187277777,1.9594922573698579,69.3568865250265,0.5098039215686274,0.47500000000000003,0.6842105263157895,0.0,44.117647058823515,44.39629435069457,43.833820000874546,42.5,0.3066666666666667,0.6933333333333332,0.6851187890446742,1.0301575072754254,0.553467859053734,0.4465321409462662,3.438324224006188,3.0883533688054943,0.5369651581612638,0.463034841838736,2.4790584124309976,2.3020806915058563,1.356714079470149,0.37513143417909034,1.3688702264152717,1.5332884501058563,0.40055782805192663,-0.5774594790403977,-0.06170502200012812,5.01285113189736e-05,0.009740232549292467,0.30458030901321775,3.600881410760818,0.9589672298976719,0.0,0.0,2.0310570339377705,1.628266666715932,1.6778473701892784,0.5561201315658328
1,105.63468644018528,73.84615384615384,3.095756839165476,1.6087993330796875,1.624807680927192,0.04192170719703249,0.021785824302120768,74.0,3.7064999999999997,0.05008783783783784,5.0,71.0,77.0,0.0,0.0,68.0,79.0,1.3,0.0,1.1489125293076055,4.269637446150273,0.26908901371556143,15.410894133054342,3.7162423920325582,1.8947979469791318,63.468030703973085,0.6923076923076923,0.7222222222222222,0.9230769230769231,0.5,49.99999999999999,50.00022858854949,49.99972864380396,50.0,0.49242424242424254,0.5075757575757576,0.8062257748298549,0.8185352771872448,0.5340209955685583,0.4659790044314417,3.120111863253573,2.9145678723188,0.5312123886704647,0.46878761132953534,2.2787165290153673,2.1406431139207838,1.4825210507623243,0.4392268994127173,1.043294151349607,1.2629076010559657,0.9863048031703203,-0.6557119703682417,0.0,0.00030187801574258215,0.023101228765061644,0.3078715606733251,3.403035449246317,0.9973517385838978,0.0,0.0,1.8966749359292028,1.528743490367657,2.4628543750734897,0.5481192036674126
1,106.89264142011567,72.9622641509434,3.3164059795492666,1.3155870289605438,1.3261495767254803,0.04545371526147172,0.018031060908949785,73.0,2.9652,0.04061917808219178,5.0,70.0,75.0,0.0,0.0,68.0,81.0,1.5588235294117647,0.0,0.9377293585702567,4.624839486024699,0.20275933065436744,13.624609077382727,4.931955519741996,1.8412941601419468,91.238010524081,0.5094339622641509,0.5,0.8,0.06666666666666667,45.652173913043484,45.62445057695071,45.6870801662327,53.333333333333336,0.4555555555555555,0.5444444444444444,0.6340037731068525,0.693103280083672,0.5059207064707381,0.4940792935292618,3.289560602414183,3.250835479463341,0.5039253378343179,0.4960746621656821,2.3688783992925098,2.350353534194419,1.8072713416072799,0.3405683422449082,1.8750549976731623,1.8058088843407964,0.9953096046351,0.3644939126482445,-0.7033251619217439,0.00017377107861774594,0.013399791563980686,0.39850850519728054,3.439724352729522,0.8149921091403759,0.0,0.0,1.7927944234783093,1.2591901968218615,1.9101860751118462,0.6484438250448905
1,104.28993014805363,74.90196078431373,3.925582259796803,1.5684387141358123,1.5780380482208445,0.052409606086292394,0.020939888591865557,76.0,2.9652,0.039015789473684205,4.0,71.0,78.0,0.0,0.0,66.0,80.0,1.4166666666666667,0.0,1.1158414048673433,5.448628361377583,0.20479308384784456,19.10027111708733,4.882977399485676,1.9880096418073885,106.42211658721365,0.49019607843137253,0.47368421052631576,0.6111111111111112,0.09090909090909091,55.93220338983049,55.973758898423576,55.882015797666085,44.73684210526316,0.5772357723577236,0.42276422764227645,0.851169663415213,0.7284313590846834,0.4630521966879541,0.5369478033120458,3.7076792895672237,3.9925762743024014,0.4676837335690119,0.5323162664309882,2.6899233734629022,2.8697802660674565,1.4074907318848102,0.5201009218951251,1.7259983420057035,1.6449082755843039,-0.06380120712270632,-1.0638012071227063,-0.6559121759021819,0.00046304858343103973,0.03529568520561905,0.4325704014226863,3.3727349004980787,0.8540107090255059,0.89703314175479,0.9788036278295351,1.648135491880831,1.544057455078954,1.9254828386227394,0.778568184192166
1,102.71733504832328,75.96,3.833046425228787,1.3702375780893485,1.3838229606400372,0.05046138000564491,0.018038935993803958,75.0,4.4478,0.059304,6.0,72.0,80.0,0.0,0.0,70.0,83.0,1.4285714285714286,0.0,0.9785105994302151,5.384848989475543,0.18171551353485904,16.553465793049636,5.503107470283031,1.9258590456697176,118.53361080131556,0.56,0.5555555555555556,0.8,0.14285714285714285,48.07692307692307,48.06721763234042,48.091404765643084,44.44444444444444,0.40217391304347827,0.5978260869565217,0.6208193510729724,0.7569125885243728,0.5410091866658687,0.4589908133341312,3.9607355688064563,3.648173843643854,0.5365674983764194,0.46343250162358074,2.834858277998679,2.634586216098634,1.3296304252704838,0.2820380811373857,1.2628582364742882,1.236660443804586,1.0,0.6243426798526635,-0.592887430534392,0.00010094672819360494,0.007988253003215052,0.35586092581273476,3.6203107519800524,0.7899854279579158,0.0,0.0,1.8324223797134274,1.5948198051101043,2.0629990336750343,0.5643856189774724
1,100.99045751436587,77.28,4.6248662418606274,2.4159335036125373,2.4406213661814125,0.059845577663828,0.03126207949809184,78.0,4.4478,0.05702307692307692,6.0,72.8,81.0,0.0,0.0,69.0,87.0,2.1739130434782608,0.0,1.7257799183356526,6.2427849510917985,0.2764439159535411,33.8464916445026,3.6173702595359662,2.23648376855466,90.32985847503267,0.64,0.6666666666666666,0.9166666666666666,0.16666666666666666,51.21951219512195,51.352060023424606,51.09640706422659,41.66666666666667,0.43356643356643365,0.5664335664335666,1.136515141415488,1.299038105676658,0.5288063841663128,0.47119361583368713,4.539695459001055,4.285268846303978,0.5220429673845823,0.4779570326154176,3.309116311580893,3.1663092935706256,1.409701569520129,0.18150815959183175,1.2281934099282972,1.318947489724213,1.0112673712706386,-0.04453547692802995,0.0,0.00019387859178023864,0.0072761632712088214,0.2320155056444877,3.918562939644917,0.90026356263273,0.0,0.0,1.654453850707455,1.4779632947633927,1.6787284359135217,1.0158941141594504
1,106.8976137466028,72.96153846153847,2.8966616245462906,1.275715869773578,1.28703946646375,0.03970121362056065,0.01748477206858884,72.0,2.9652,0.04118333333333333,5.0,71.0,76.0,0.0,0.0,68.0,79.0,1.2682926829268293,0.0,0.9100743343912336,4.023460611726881,0.22619193331698284,11.50340720505447,4.421024151195574,1.7677966034624344,71.15126614331464,0.6538461538461539,0.7142857142857143,1.0,0.21428571428571427,46.93877551020409,46.900872506003594,46.98072289919776,51.42857142857142,0.4457831325301205,0.5542168674698794,0.6082762530298219,0.6782329983125267,0.47865082079343363,0.5213491792065663,2.7836149357852356,2.905120166772969,0.4770478237266356,0.5229521762733645,2.0147595527415474,2.1094695048034,0.7767319402594604,0.44794526594860895,0.40209411706641696,0.6260667500407214,1.1474678672440017,-0.4200430512740172,0.0,2.99652475158531e-05,0.010965484091788177,0.3714335850081145,3.1859989633347774,0.8699384764466197,0.4163552618231252,0.524813742174611,1.733332213570252,1.6826187115896991,2.146468599286394,0.32887152220044763
1,104.78149238408356,74.46153846153847,3.038714501564949,1.5904124511289146,1.6051388065321,0.04080918235572761,0.02135884490152468,75.0,2.9652,0.039535999999999995,5.0,72.0,77.0,0.0,0.0,68.0,80.0,1.2093023255813953,0.0,1.1350045348445295,4.13511979104288,0.27447923934466734,14.74468723302265,3.6432627924339522,1.8756056746140684,60.261312307855135,0.5576923076923077,0.6216216216216216,0.9565217391304348,0.058823529411764705,47.54098360655738,47.4260024647358,47.65390521349676,51.35135135135135,0.48837209302325585,0.5116279069767442,0.7937253933193771,0.8124038404635959,0.5555576541099664,0.4444423458900336,3.0821421371810556,2.7567400190238294,0.5508445997154527,0.4491554002845473,2.250511070155733,2.0321928467160175,1.5138807697132455,0.6624517318741994,1.6104843419144101,1.316436056486359,0.9972098415735235,1.3719713616634097,-0.9438788084924069,0.00018827148681230734,0.031167728036448922,0.47090021626151124,3.213145007305409,0.9616036689805302,1.0438997104319372,1.3918564345143594,1.844075252991064,1.3990581004926494,2.2253157383407767,0.7673668851343778
1,109.14161024289959,71.49056603773585,4.130666930269782,1.593255013631383,1.5856635230862997,0.05777918904837647,0.0222862274274118,70.0,2.9652,0.042359999999999995,7.0,68.0,75.0,0.0,0.0,66.0,82.0,1.8928571428571428,0.0,1.121233429854474,5.575479607233689,0.2011008036689388,19.639396683685675,4.972630550230148,2.00009825222277,110.89920090846171,0.5849056603773585,0.625,0.88,0.13333333333333333,61.29032258064515,61.002652675730985,61.58073040665188,45.0,0.6666666666666666,0.3333333333333333,0.9288407280256479,0.6567895774291852,0.5502332698839252,0.4497667301160752,4.135763108442246,3.7391758933656565,0.5548867007782603,0.4451132992217397,2.997272225473613,2.684474707512297,0.8634027439952696,0.7369511190759064,1.0696175707462072,0.8792129803174455,0.8970935674419493,0.7203141367891748,-0.7583680050143867,0.00032484958129145935,0.04485398388555275,0.2581536567056433,3.7226247010255777,0.7785595783879473,0.6587397365032923,0.6668070516454887,1.7572808511284344,1.6887344267590616,1.604131696685865,0.4322958833632603
1,98.50076619683973,79.14583333333333,4.312226967407875,2.5847342346612323,2.599900375234999,0.054484573423421424,0.03265786871906796,79.5,4.4478,0.05594716981132075,6.0,74.0,82.6,0.0,0.0,73.0,89.0,2.0869565217391304,0.0,1.8384071857381172,5.74629350030734,0.31992921796281204,33.187870439643305,3.125691383761761,2.227949495965342,71.84456032990745,0.6666666666666666,0.6363636363636364,0.9047619047619048,0.4,42.857142857142854,42.71334335608095,42.999459072913744,45.45454545454545,0.3121019108280254,0.6878980891719746,1.0320936930842797,1.5322617553657474,0.5960039734353257,0.40399602656467404,4.43621291660255,3.6523833246584445,0.5694079786153575,0.4305920213846426,3.220652296720002,2.800690096851095,1.1658215438273738,1.2199903512407007,1.416720597180158,1.5344089998250445,0.15978386142352008,-0.2675135250539622,-0.40353333325529966,0.0007184080490194817,0.11304871971866975,0.3062076502802107,3.5464526792219004,1.085203953594862,0.0,0.0,1.6315291417763527,1.6522959315349988,2.0218841911456322,0.6981203125901446
1,105.34368991231564,74.0576923076923,2.090252461892934,1.2602520756252087,1.2726381430466613,0.028224650225508328,0.01701716643274756,74.0,1.4826,0.020035135135135135,2.25,72.2,76.0,0.0,0.0,70.0,78.0,1.04,0.0,0.8998910609449497,2.842603060024868,0.3165728882797576,8.036297942861072,3.158830200002134,1.612026139648483,35.91720157050013,0.6923076923076923,0.6285714285714286,0.8636363636363636,0.2727272727272727,48.979591836734706,48.97288947196718,48.986963164663415,51.42857142857142,0.4938271604938272,0.5061728395061728,0.6324555320336758,0.6403124237432848,0.5097796556137623,0.49022034438623796,2.029586049161167,1.9902694857513918,0.5083262302958279,0.491673769704172,1.5031998421616524,1.4783728599228798,1.490220363604502,0.39813427934946044,1.1609484787973186,1.3600156184720489,1.0,-0.9525173673764114,0.0,0.0002982582913394671,0.021059120908193476,0.5807164754561058,2.9983566001841497,1.1039565046556845,1.0621238105123396,1.1796247178237735,2.14911440278331,1.566577641279462,2.756661622017711,0.6577430444008953
1,105.47861813142069,73.92307692307692,4.797246570756343,1.6087993330796875,1.617065849241865,0.0648951149009703,0.021763154349673193,73.0,4.4478,0.06092876712328767,7.0,70.0,78.80000000000001,0.0,0.0,66.0,84.0,1.9259259259259258,0.0,1.143438227624106,6.681258540595066,0.1711411436448118,24.00053141781895,5.843130288269026,2.0871909678930325,156.15785656922856,0.5576923076923077,0.5238095238095238,0.7727272727272727,0.2,43.749999999999986,43.39303901570569,44.10615137334698,50.0,0.3787878787878787,0.6212121212121213,0.7071067811865475,0.9055385138137416,0.5825704998682245,0.4174295001317756,5.099557843193704,4.316679915188996,0.5767176354141778,0.4232823645858222,3.6404319933270575,3.118791872680516,1.5575885428728846,0.27403899800886755,1.546800880291002,1.4899704969258698,1.0112762374541289,0.5283614489709709,-0.7073806420912884,7.75739118214054e-05,0.007159676495365561,0.20737143438031636,4.031768565580189,0.7246547888402841,0.0,0.0,1.7756244416616733,1.5046430213049702,1.9956812695927635,0.32887152220044763
1,107.06328514616158,72.98076923076923,4.055934333572275,1.6861605068622503,1.693586518049092,0.05557538480784146,0.023104175588099348,72.0,2.2239,0.0308875,3.0,70.0,74.0,0.0,0.0,66.0,84.0,1.5294117647058822,0.0,1.1975465114386261,5.593588766982933,0.2140926981453015,21.04421824477976,4.67087391892887,2.0301029070791223,104.50779153965631,0.6153846153846154,0.6176470588235294,0.9047619047619048,0.36363636363636365,57.6271186440678,57.642216302587656,57.596106503466906,44.11764705882353,0.5931034482758621,0.4068965517241379,0.9273618495495703,0.7681145747868607,0.5919837873107505,0.40801621268924937,4.303734195751598,3.572968970819084,0.5920333779006166,0.4079666220993833,3.1130473838091235,2.5841930332732486,1.6915691441504492,0.4197610520312727,1.872061053667408,1.6621805276517718,1.3609838190339176,0.3844652302092224,-1.0,0.0009656239961461005,0.033977082151066665,0.42733914388400374,3.4702494341814014,0.7631893928426031,0.7945134575869863,0.8330511275438008,1.5456381435070767,1.463975582399049,1.5344677534358881,1.0962384073348252
1,109.29177397364859,71.33333333333333,2.532803652007522,1.4075269359666613,1.419846881501158,0.035506593252441904,0.019731686018224226,72.0,2.9652,0.04118333333333333,3.0,69.6,73.0,0.0,0.0,65.0,76.0,1.7419354838709677,0.0,1.003983358156041,3.404087016807458,0.2949346926793993,10.736853811120392,3.3905811178579204,1.7378471499247734,46.16733265093067,0.5740740740740741,0.5789473684210527,0.7727272727272727,0.15384615384615385,52.54237288135594,52.42749104388741,52.65971457581187,47.368421052631575,0.5238095238095238,0.4761904761904762,0.7272180923534244,0.6933752452815363,0.500334542906568,0.4996654570934323,2.4078581411925946,2.406247616079783,0.5022159356615106,0.4977840643384896,1.7785706314276093,1.7707056249781992,1.5946159474951644,0.2524191238871214,1.6584945477280113,1.683994597292493,0.8312165166860073,-0.09838173274144602,-0.39897734699417975,4.398079234737466e-05,0.005636893810439187,0.4277189787844007,3.1724090165844325,1.1401972179294633,1.1581952304498089,1.3481009443145364,1.8319012098814205,1.498183836701081,2.01313251357923,0.7460039354656347
1,109.84820190333605,70.92592592592592,2.385900817592935,1.266401826003761,1.2749683396279692,0.03363933267624504,0.017855273786998197,71.0,2.9652,0.04176338028169014,3.0,69.0,73.0,0.0,0.0,66.0,77.0,1.8,0.0,0.9015387587490902,3.2325225044312633,0.278896359580862,9.155368566186443,3.5855613228614565,1.6686459422738988,46.36163066867196,0.6111111111111112,0.6216216216216216,0.8695652173913043,0.2,45.09803921568628,45.18030339508408,45.01784467846303,48.64864864864865,0.36470588235294127,0.6352941176470587,0.5459642140991688,0.720576692122892,0.5201514256100069,0.4798485743899931,2.331344501013995,2.2392040012572276,0.5088749216507618,0.49112507834923824,1.693110171472181,1.6633197720939212,1.5537452383912538,0.43391569914390615,1.1972255697063172,1.4141834192782703,1.2057819884430865,-0.34405327127039786,0.0,3.432303669355447e-05,0.010165198746231516,0.41668592825051753,3.2471818938808545,1.0574743829055675,0.577444644730455,0.842282463926117,2.0268117306752034,1.44201447700397,1.775868027126339,0.7460039354656347
1,110.66549043653309,70.51851851851852,2.9251075822224255,1.310336266793937,1.3194426408291935,0.041479991974792796,0.018581449161468647,70.0,1.4826,0.021179999999999997,3.0,69.0,73.0,0.0,0.0,66.0,77.0,1.6875,0.0,0.9329868387170088,4.020764320179996,0.23204216025157182,11.785119957426902,4.309561671533465,1.7783041174062173,69.31092721806809,0.5185185185185185,0.5128205128205129,0.75,0.15384615384615385,45.45454545454547,45.29702782195241,45.611655558903614,56.41025641025641,0.49450549450549447,0.5054945054945056,0.6577935144802718,0.6650621717611762,0.46508025908194855,0.5349197409180513,2.7420323249715275,2.940714955116145,0.4665911009633723,0.5334088990366277,1.9939199556252338,2.131913710677738,1.5266950267143797,0.7915956379677547,0.7350993887466251,1.1308972077305024,1.0098375337059173,-0.966273738168042,0.0,0.0007569719866204298,0.06620669071885542,0.4435658122083215,3.249994320091141,0.9202119437326031,0.7012788745881839,0.6371379044372792,1.757871009618318,1.5448859660604504,2.2626379090960445,0.7460039354656347
1,111.7319356529469,69.87272727272727,2.880679867377925,1.3402597868683133,1.3465020552401314,0.04122752867701948,0.019181443736080463,70.0,2.9652,0.042359999999999995,4.0,67.0,72.0,0.0,0.0,63.0,76.0,1.9642857142857142,0.0,0.9521207341419201,3.9404414683837397,0.24162793478377786,11.786551994035566,4.138594326417,1.7783568863060282,65.23155481852487,0.5818181818181818,0.6153846153846154,0.875,0.3076923076923077,56.363636363636374,56.40524054123679,56.31590275162617,48.717948717948715,0.6288659793814434,0.3711340206185566,0.7585985091688537,0.5827715174143584,0.48248776190482157,0.5175122380951785,2.7370834074079857,2.834687528926266,0.4906344877523756,0.5093655122476245,2.0083696469053347,2.0463474812650384,1.438112715565019,0.4185262679602637,1.2439869319289782,1.2288495815848872,0.9820376119509984,1.1798972814465074,-0.5361682204987148,0.00033053209234859315,0.01881130381886774,0.459212065127546,3.440540288357313,0.8364396149401893,0.0,0.0,1.8036888441918162,1.472077498563863,1.7463099812477783,0.525578155774969
1,107.84349431972493,72.28301886792453,2.713055037085046,1.454436184706849,1.4681125465958313,0.03753378151018205,0.020121408976628296,72.0,1.4826,0.020591666666666664,2.0,71.0,73.0,0.0,0.0,66.0,78.0,1.2045454545454546,0.0,1.0381123372429635,3.7114026733731773,0.2797088940768197,12.104094377642397,3.5751455215627086,1.7899024112566233,53.07521858570392,0.6792452830188679,0.696969696969697,0.8260869565217391,0.36363636363636365,48.07692307692307,48.12217067611338,48.03271690915765,54.54545454545454,0.5545454545454545,0.4454545454545453,0.773329952663334,0.693103280083672,0.4363879003558719,0.5636120996441282,2.451740078345318,2.786302279394119,0.4449669966996699,0.5550330033003299,1.8178378128220045,2.0302552239828873,1.7059638487464046,0.3366072241069622,1.6219155445889148,1.5986363977663083,1.0125998807244523,0.7565066509727476,-0.5691581913738407,7.916628326692452e-05,0.009786497988610062,0.48514191383102734,2.859007841626358,0.9140143802598966,0.6815998349426016,0.7991007422540355,1.4594536404168466,1.4331688273830234,1.7982885133078539,1.296887650089781
1,102.1413348600763,76.42,7.262118654148993,2.1759351731039738,2.1969366427471,0.09502903237567381,0.02847337311049429,78.0,8.8956,0.11404615384615384,12.0,68.8,83.2,0.0,0.0,64.0,88.0,2.6315789473684212,15.625,1.5534687979236816,10.251016209787853,0.15154290717445185,50.028712648027835,6.598791184920511,2.4061894376093207,270.5772616065014,0.5,0.4594594594594595,0.6470588235294118,0.18181818181818182,52.702702702702695,52.756505509453376,52.630949160336,59.45945945945946,0.6077586206896552,0.39224137931034475,1.2119199643540823,0.9736101204623268,0.4298317661719723,0.5701682338280278,6.720725761545753,7.740489556315452,0.4338316722037652,0.5661683277962349,4.828918344821371,5.516479640046505,1.773481231870552,0.5874355909739069,1.9422736688787108,1.950820232427415,0.7221723626609826,-0.0030612791014821283,-0.4854510627547524,0.00030067842520883957,0.03243375676735912,0.37967675183053906,4.253340441068116,0.6257283481657201,0.4728287470908268,0.41759965305594693,1.5031073315968242,1.3003257344877897,1.7477089956054737,0.5643856189774724
1,107.05342205950582,72.69811320754717,2.5838619400809963,1.2633898235120649,1.2504900999992277,0.03554235214749359,0.01737857789933544,72.0,2.9652,0.04118333333333333,3.0,71.0,75.0,0.0,0.0,66.0,79.0,1.2619047619047619,0.0,0.8842300295160979,3.33801518865603,0.26489694610170766,9.27264089776426,3.7750529582022745,1.6741735511165643,50.40473644984028,0.6981132075471698,0.7428571428571428,0.9230769230769231,0.75,36.73469387755103,36.61677213146032,36.83088262443257,62.857142857142854,0.3614457831325302,0.6385542168674698,0.5423261445466404,0.7208382919471292,0.2612791508902272,0.7387208491097726,1.7062422292742645,2.8689863810655374,0.26809645255005177,0.7319035474499481,1.2659739712998912,2.0917326188923844,1.1866114030080495,0.3739676033252819,0.8126437996827676,0.9996276013454085,0.9882994733504022,-0.5161568609419589,0.0,0.00024397534606920046,0.01672116679961089,0.4811462571649403,3.1547833465920556,0.9466277324883027,1.1248668777684594,1.2873972527188506,1.649440149762016,1.6113186110368223,1.505595451913844,0.7565177958857056
1,109.14479191207222,71.58490566037736,2.898500688447198,1.3082577962842268,1.3094101927166852,0.04049038916386439,0.01827560970033316,71.0,2.9652,0.04176338028169014,4.0,69.0,73.0,0.0,0.0,67.0,79.0,1.7666666666666666,0.0,0.9258928266247521,3.928350564789162,0.23569506115970726,11.426700100371555,4.242770277322013,1.7648909392096512,66.66835606075439,0.6037735849056604,0.5945945945945946,0.8636363636363636,0.18181818181818182,58.49056603773586,58.40508810673819,58.57656761880372,45.94594594594595,0.6404494382022471,0.3595505617977528,0.7475450015964019,0.5601120336112039,0.592038135899848,0.40796186410015195,3.0226306260435942,2.5091118465271016,0.5946289094640138,0.40537109053598597,2.2017174467797243,1.8178789492948533,1.6622269116458666,0.6460608505301866,1.0423861734039965,1.3654165986690898,1.0,-1.1969282414711673,0.0,0.0006883177642728219,0.04813175466232993,0.4138627737565259,3.1874480425835636,0.982000557446128,0.7382883423459594,0.739841157345779,1.840162387938668,1.4781820846870282,1.6609910554610505,0.6484438250448905
1,108.83830668960667,71.64814814814815,3.686576401289369,1.3175162452902711,1.3295786514610182,0.05145389652872213,0.01838869921056465,71.0,3.7064999999999997,0.05220422535211267,5.0,68.6,74.0,0.0,0.0,65.0,80.0,1.7419354838709677,0.0,0.940154080568951,5.132355601506904,0.1831817889416925,15.15882877386214,5.459057943354314,1.8876357573858882,112.0713064581011,0.5,0.5263157894736842,0.7,0.18181818181818182,51.85185185185187,51.755308817512926,51.948640732057925,52.63157894736842,0.5869565217391305,0.4130434782608696,0.720576692122892,0.6044705248269888,0.49416959404177385,0.5058304059582263,3.607902140475196,3.650221385761937,0.4971844210498787,0.5028155789501211,2.6015561328247627,2.6162473870467995,1.753831887092081,0.13573363987033593,1.7733786975952643,1.7228857653535996,0.9988711829565369,0.2695699561627145,-0.8720001341590764,6.380681385270185e-06,0.0012321866762484825,0.41139085147972443,3.5615036501039183,0.7633501014324122,0.8047189562170503,0.8888370153723535,1.5779872628050093,1.2538077330521875,1.8224616869472348,0.8525759262464397
1,105.77222939252833,73.80392156862744,4.074406007472192,1.5556349186104046,1.5681784571500106,0.055205819973719934,0.02107794390253205,74.0,4.4478,0.060105405405405404,6.0,71.0,78.0,0.0,0.0,66.0,81.0,1.3783783783783783,0.0,1.1088696211614302,5.623003046887501,0.19720238668112094,19.588387068793544,5.070932542094504,1.9989687871019415,114.05547653903349,0.5882352941176471,0.5945945945945946,0.8636363636363636,0.21428571428571427,45.90163934426229,45.63092920332906,46.16378468903407,51.35135135135135,0.4462809917355371,0.5537190082644627,0.7423074889580902,0.8268454930564446,0.467267522542584,0.532732477457416,3.8437144556179677,4.104146981892777,0.4664787953708248,0.5335212046291752,2.768136667913074,2.960379698481881,1.644256792783779,0.5509854674200092,1.7492421326272165,1.8323960172399634,0.4478262083210378,-0.36367978543288615,-0.3490815284074276,8.968486275368822e-05,0.02025112848622278,0.24969436900153275,3.708916214767229,0.8387682950794036,0.0,0.0,1.8878022944995343,1.3766830437014366,1.9576033096483592,0.8897922105053325
