Stress,ECG_Rate_Mean,HRV_MeanNN,HRV_SDNN,HRV_RMSSD,HRV_SDSD,HRV_CVNN,HRV_CVSD,HRV_MedianNN,HRV_MadNN,HRV_MCVNN,HRV_IQRNN,HRV_Prc20NN,HRV_Prc80NN,HRV_pNN50,HRV_pNN20,HRV_MinNN,HRV_MaxNN,HRV_HTI,HRV_TINN,HRV_SD1,HRV_SD2,HRV_SD1SD2,HRV_S,HRV_CSI,HRV_CVI,HRV_CSI_Modified,HRV_PIP,HRV_IALS,HRV_PSS,HRV_PAS,HRV_GI,HRV_SI,HRV_AI,HRV_PI,HRV_C1d,HRV_C1a,HRV_SD1d,HRV_SD1a,HRV_C2d,HRV_C2a,HRV_SD2d,HRV_SD2a,HRV_Cd,HRV_Ca,HRV_SDNNd,HRV_SDNNa,HRV_DFA_alpha1,HRV_MFDFA_alpha1_Width,HRV_MFDFA_alpha1_Peak,HRV_MFDFA_alpha1_Mean,HRV_MFDFA_alpha1_Max,HRV_MFDFA_alpha1_Delta,HRV_MFDFA_alpha1_Asymmetry,HRV_MFDFA_alpha1_Fluctuation,HRV_MFDFA_alpha1_Increment,HRV_ApEn,HRV_SampEn,HRV_ShanEn,HRV_FuzzyEn,HRV_MSEn,HRV_CMSEn,HRV_RCMSEn,HRV_CD,HRV_HFD,HRV_KFD,HRV_LZC
0,109.1394195728125,71.56603773584905,5.678940292405131,2.5495097567963922,2.567049588485503,0.07935244806155338,0.03562457609022114,71.0,5.9304,0.08352676056338028,6.0,67.0,76.6,0.0,0.0,61.0,87.0,2.409090909090909,0.0,1.815178171660235,7.760994245211636,0.23388474650398824,44.25746090762244,4.275610166749151,2.3529566043826757,132.73194359563408,0.4716981132075472,0.46153846153846156,0.7222222222222222,0.15384615384615385,44.680851063829785,44.0442452262673,45.269788494024375,61.53846153846154,0.5384615384615384,0.4615384615384615,1.335782065117733,1.2366938848016844,0.40679726032146873,0.5932027396785314,4.950013360176325,5.977491063003275,0.4136630595233422,0.5863369404766576,3.6253928057118388,4.316237433980544,1.5285911168920634,1.052231602164822,1.7480832835425937,1.9730136670686695,0.05013676412106882,-0.7767299272464276,-0.28623490963081466,0.0009598056080278825,0.10381042133810517,0.43053950577603084,0.6931471805599453,3.9410671639172055,0.7493434211358433,0.5198603854199589,0.661085198452036,0.828302216596,1.3114465753918674,1.4340214938940157,1.812050208390676,0.5403698542040754
0,105.95864131082094,73.98076923076923,21.013991962980548,9.965627200040952,10.064614775948224,0.2840466810696617,0.13470564450276307,64.0,7.412999999999999,0.11582812499999999,19.25,59.0,93.80000000000001,1.9230769230769231,3.8461538461538463,56.0,124.0,2.1666666666666665,0.0,7.116757358103312,28.988361423840697,0.2455039542956135,648.1204116398634,4.0732541472464066,3.5186258091235794,472.30785356614746,0.46153846153846156,0.4,0.75,0.25,49.32735426008968,48.111070552283905,50.4253592318871,70.0,0.7956564659427442,0.20434353405725575,6.348228099241551,3.2171415884290826,0.4507243878142802,0.5492756121857197,19.461629309456605,21.48418215014281,0.47033302760191853,0.5296669723980814,14.475065032301243,15.360990896757198,1.6643481608662505,1.4773945529901695,2.436637296316284,1.8222297567630323,1.0738691648712853,1.2584487586345383,-0.9158723465642424,0.00934832645780365,0.3930101342937364,0.3198384238742389,0.2113090936672069,4.587472353123262,0.41182189899055754,0.2894628447794962,0.28158546450888894,0.2811695367432614,0.8449784716996716,1.1800816601785873,1.4651654565819312,0.5481192036674126
0,111.33156001698997,70.2909090909091,15.025500210164605,8.200045166993945,8.276008281036502,0.21376164292784613,0.11665868706276952,67.0,10.3782,0.15489850746268657,11.5,58.8,79.20000000000002,0.0,5.454545454545454,55.0,109.0,2.2916666666666665,0.0,5.852021576676933,20.514831606987,0.2852580849205623,377.15836804598536,3.5055973971026155,3.283493857850634,287.66696113380834,0.6,0.5476190476190477,0.8260869565217391,0.2,51.72413793103448,51.739586437604565,51.79449740857478,61.904761904761905,0.7317543376480309,0.2682456623519692,5.006599418352646,3.0312834320272692,0.43974241826663985,0.5602575817333603,13.60401608221761,15.355424523529052,0.4617211025311086,0.5382788974688913,10.250251004270199,11.067469031876268,1.4445753682329456,1.2021283637489333,1.9353072695157234,1.443657806129509,1.0429727226156231,1.4008385618781585,-0.9089824998829297,0.004236627272374327,0.20785456480247017,0.327826374425241,0.3074846997479609,4.38147392334846,0.48258849298957657,0.32761879605858224,0.24888948950044165,0.24799927315085868,0.979938593126905,1.3683504953016838,1.507512679216552,0.6306937869299629
0,121.97238903127995,64.06666666666666,16.11386040572343,7.576726183584633,7.6412856284095705,0.25151707188954364,0.11826315583118574,58.0,4.4478,0.07668620689655173,5.0,56.0,62.2,1.6666666666666667,1.6666666666666667,53.0,114.0,1.3043478260869565,0.0,5.403204884831716,22.334867107731956,0.2419179330134101,379.1269712210086,4.133633201737746,3.2857547913436327,369.2965929316845,0.65,0.6585365853658536,0.8888888888888888,0.36363636363636365,51.515151515151494,50.84718054731231,52.170174092353086,63.41463414634146,0.8063182757602597,0.19368172423974014,4.852123601916573,2.37806064131954,0.46196101003466505,0.5380389899653351,15.180498522418716,16.38287988513893,0.4810022787346294,0.5189977212653708,11.269220000457722,11.705851650877069,1.635676575024608,1.4195574340396768,0.34476009850090206,1.0545388155207405,1.0,-1.716106977174669,0.0,0.015282902255029944,0.5111236708364635,0.17619406118160263,0.17155173460989906,3.7454265871243133,0.3018505628452272,0.3526581517546702,0.2964682501746029,0.2893417652482254,0.7069508261903192,1.1722118249516935,1.3950621513991257,0.39379270637390124
0,121.10211202035681,64.37288135593221,7.631374226777847,2.603048610565219,2.5542510501323554,0.11854952063714928,0.04043703739424642,63.0,5.9304,0.09413333333333333,8.5,58.6,69.0,0.0,0.0,54.0,90.0,2.269230769230769,0.0,1.8061282384014485,10.097954906065707,0.17886079460669124,57.29699986578195,5.590940162146578,2.4651019923856032,225.82824655947135,0.6271186440677966,0.5945945945945946,0.8181818181818182,0.125,25.352112676056343,26.55929696308591,23.95013321404835,70.27027027027027,0.09669211195928754,0.9033078880407125,0.5773502691896257,1.7646628821730506,0.3163465661035257,0.6836534338964744,5.679563889133855,8.349326159288735,0.3091633170188431,0.6908366829811571,4.036754841706802,6.034288789986044,1.215657246803023,1.593198080627486,1.86713088522826,1.1674241666410792,0.9979762251757354,1.6874654641005826,-0.9391837569322197,0.004735705955179627,0.31304410453475456,0.42095868884202625,0.4715085204251558,4.195765296220647,0.415414104267381,0.4104491690583507,0.4407577176032113,0.45861698718405003,1.1214421779828851,1.3958415083996207,1.2008590008556363,0.4985290719798171
0,114.6256565867037,68.21052631578948,14.613761667523798,6.34428877022476,6.400791347179649,0.21424496271832727,0.09301040635360373,62.0,8.8956,0.1434774193548387,23.0,56.0,81.80000000000001,0.0,3.508771929824561,53.0,107.0,2.111111111111111,0.0,4.526042966550907,20.25371538787358,0.2234672937717277,287.98724154260077,4.474927776328209,3.166343357962752,362.5356542521662,0.5964912280701754,0.5714285714285714,0.875,0.5555555555555556,51.70454545454546,51.93046131313044,51.47624325171852,61.904761904761905,0.6393078970718723,0.36069210292812787,3.619392214170771,2.718622645920005,0.49240303693090337,0.5075969630690966,14.21232284300114,14.429929536186064,0.4993920940566723,0.5006079059433278,10.370393449471722,10.383009571174535,1.647072372930483,1.2576972882917143,0.577902369688672,1.2067510138345292,1.0,-1.3184150464782802,0.0,0.02056293251296318,0.5632519613655985,0.27517988038633234,0.26175838744198937,4.571203225377135,0.4952606408639679,0.26416576876579057,0.3138424271974579,0.34765033090872777,0.8822946491733185,1.2003751437715888,1.4344946071110456,0.613988422543657
0,126.25973311911191,61.75806451612903,4.463643604195751,1.5203537120802073,1.5285980576521494,0.07227628714028116,0.02461789766230683,61.0,2.9652,0.048609836065573765,3.0,59.0,64.0,0.0,0.0,54.0,75.0,1.5121951219512195,0.0,1.0808820522744198,6.1898912832424315,0.17462052285161053,21.0189588322228,5.726703732583498,2.029581309540821,141.79069406412196,0.6935483870967742,0.7857142857142857,0.9696969696969697,0.3076923076923077,44.61538461538461,44.100750389777026,45.11270666962106,54.761904761904766,0.4184397163120565,0.5815602836879431,0.7011894655987542,0.8266397845091495,0.5105933060343093,0.4894066939656907,4.423037074790756,4.330299889544266,0.5078513171210853,0.49214868287891467,3.1666167775435214,3.117276893918827,1.5747838604594664,0.8102890456887852,0.7644948147706812,1.1696393376150738,0.933214902827382,-1.0276845143025544,0.0,0.0022834847888270333,0.11216884725840648,0.3883169861183342,1.0986122886681096,3.7177913629814228,0.6095353381075592,1.0225663670928422,1.034092960428115,1.1072982888579452,1.321615482988707,1.311595643374149,1.5961187173075768,0.8643188192497077
0,113.44501991334386,68.98214285714286,8.941204050357529,3.3439225741362764,3.374293790685481,0.12961621196479978,0.048475191341349075,67.0,11.119499999999999,0.16596268656716415,14.0,61.0,77.0,0.0,0.0,54.0,89.0,3.2941176470588234,31.25,2.3859860211093644,12.256380184167558,0.19467297727852087,91.8713274646472,5.13681977837781,2.6701501015782108,251.8352645653991,0.5178571428571429,0.42857142857142855,0.6111111111111112,0.15384615384615385,51.19999999999998,51.54011039777971,50.93629106721443,57.14285714285714,0.6308943089430894,0.3691056910569103,1.8954135676924424,1.4497764834110984,0.4672850040243295,0.5327149959756706,8.378246735771924,8.945604331367573,0.473260530804059,0.526739469195941,6.07402712201985,6.408029677882045,1.6382986202206318,0.9447581565625232,1.8538379556422724,1.7368035224268068,0.623249414878714,0.5064911649535775,-0.6238776637200912,0.00024052337270841424,0.05834004442760708,0.48855486998146747,1.0586069540544105,4.4987082700014565,0.7110979148031338,0.0,0.0,0.0,1.409710238974457,1.378100137293878,1.4655430081829404,0.5185138323265718
0,107.89387796771449,72.96153846153847,21.836254741052525,7.398993042246741,7.472511717792687,0.2992844613955538,0.10140949873400909,59.5,8.1543,0.1370470588235294,42.25,55.0,99.80000000000001,0.0,1.9230769230769231,53.0,114.0,2.6,0.0,5.283863708147146,30.52211027577016,0.1731159366245301,506.659320939494,5.776475693100935,3.4116861466765664,705.2409124405305,0.46153846153846156,0.42857142857142855,0.7333333333333333,0.3333333333333333,49.411764705882355,48.51317881218146,50.098137490342864,68.57142857142857,0.7335243553008596,0.26647564469914037,4.525483399593904,2.7276363393971708,0.4376815853228306,0.5623184146771695,20.19266752083721,22.88788749708457,0.4462899904519335,0.5537100095480664,14.632563370904533,16.298702311521616,1.6630725405141793,0.6568535042787618,1.0781313125490035,1.4065580646883844,1.0,-0.8186813207018462,0.0,0.00407112629514683,0.13841687073803416,0.2545315430159527,0.1114395617342085,4.29349242085782,0.4021065678238868,0.14229891439146697,0.13944265952274182,0.13991085199808193,0.6646752325382432,1.1661334209832122,1.3764630291476734,0.43849536293393016
0,119.72706128292602,65.28813559322033,9.37173087361691,4.222272635311054,4.256875865645038,0.14354416447128707,0.06467136175580275,63.0,5.9304,0.09413333333333333,8.5,59.0,71.4,0.0,1.694915254237288,54.0,96.0,2.4583333333333335,0.0,3.0100657912669604,12.931084492744592,0.23277752093846857,122.2815148541097,4.295947460770217,2.7943309201982567,222.20503836644505,0.4576271186440678,0.4444444444444444,0.75,0.2727272727272727,53.703703703703674,54.37201432075661,53.145284198299805,60.0,0.7292069632495166,0.2707930367504836,2.571776640324602,1.5672078199387574,0.43437050373848174,0.5656294962615183,8.522462769321033,9.725254469885945,0.449540523359372,0.550459476640628,6.2946964478909715,6.96551200038137,1.4924776552164447,1.2882602627173139,2.0757121402941063,1.4650772150072742,0.91151625332461,1.2668901920790923,-0.9739996590431396,0.004264983904594104,0.22972796392809305,0.5028901806585337,0.6561059088795962,4.344591042849908,0.44342513946781814,0.42143133151518863,0.5071471851590876,0.5363289333006208,1.1308421582901056,1.2792425562159626,1.3031024537963833,0.3988232575838537
0,114.24553521834622,68.33928571428571,3.0764606920307607,1.7888543819998317,1.7993638980791067,0.04501745459987526,0.026176076663702794,67.5,2.2239,0.032946666666666666,4.0,66.0,70.0,0.0,0.0,64.0,77.0,1.1914893617021276,0.0,1.2723424141539958,4.129551870748041,0.30810665514743113,16.50656867618607,3.2456293406628727,1.9246269130927611,53.61197886195639,0.7142857142857143,0.7073170731707318,0.9310344827586207,0.3,55.71428571428573,55.81119730353903,55.612974324118916,51.21951219512195,0.5965909090909092,0.40340909090909094,0.9860132971832692,0.8108066399625791,0.5312536795853017,0.46874632041469794,3.009912711892306,2.827299793086639,0.5369527891370452,0.46304721086295475,2.2396201413892842,2.0797874323347516,1.1262550577495243,0.8725389496514588,1.2820179915495054,0.9094264150559874,1.0117295116688862,1.5840079051505969,-0.9270199933680348,0.0006618107192174812,0.06742381407411932,0.5160921428975485,1.845826690498331,3.1910358583685463,0.9433003211398496,1.1026940119899669,0.704695441256497,0.6585710127156502,1.783145826563753,1.6198567988829269,1.7244836410461424,0.8296221317225149
0,114.61414505613818,68.01754385964912,5.033783113233794,2.29128784747792,2.310900201276494,0.07400712856701734,0.03368671841791113,67.0,4.4478,0.06638507462686567,6.0,65.0,71.0,0.0,0.0,59.0,79.0,1.7272727272727273,0.0,1.6340532029679664,6.98179450753562,0.23404487216063052,35.84124833281316,4.272684937586141,2.2613532374756207,119.32403291867637,0.5263157894736842,0.5111111111111111,0.782608695652174,0.45454545454545453,47.72727272727273,47.706564595711654,47.76135775034761,62.22222222222222,0.6666666666666669,0.3333333333333333,1.3348476249438292,0.9438798074485388,0.44796717642670647,0.5520328235732935,4.672939507030199,5.187397315522584,0.45933521923620935,0.5406647807637907,3.436435785678369,3.7282703764614498,1.7983511394766678,0.5907082521584615,1.3231897555250849,1.6185438816043156,1.0,-0.7593628097259297,0.0,0.0027604763965050024,0.09555308944299572,0.4283837651305302,0.5055485666651471,3.9994953919889897,0.7288008317243301,0.2868506132093855,0.5545154616095199,0.5772054620969347,1.6104081176857716,1.2752891441990672,1.9800821818078176,0.613988422543657
0,117.0225848827605,66.66666666666667,4.870953754265224,2.29906813420444,2.318754703849326,0.07306430631397835,0.0344860220130666,66.0,2.9652,0.044927272727272725,4.0,64.0,68.80000000000001,0.0,0.0,59.0,83.0,1.2954545454545454,0.0,1.6396071750000631,6.742576485464414,0.24317220257489308,34.730862167350196,4.1123121368776365,2.247685674437975,110.91031646000427,0.543859649122807,0.4871794871794871,0.7894736842105263,0.15384615384615385,52.77777777777778,52.85961251118688,52.68864596609563,58.97435897435898,0.7635135135135136,0.23648648648648649,1.433368568981982,0.7977240352174656,0.34799391532880064,0.6520060846711994,3.9775139073442443,5.444421069243339,0.3712140622471545,0.6287859377528455,2.989578761101832,3.890892212307122,1.6771560576713858,0.4720796203847226,1.5803278630250812,1.5216812566210243,1.0,0.9827396477889163,-0.6242303286811295,0.00038375621295536744,0.024607474586983747,0.34888405106316567,1.3862943611198906,3.641488866435187,0.6641860431210037,0.6931471805599453,0.5198603854199589,0.621226662447,1.2767267417101502,1.304138244096835,1.4946771360468871,0.7163198263009332
0,108.61673773885722,71.88679245283019,13.090895804922082,5.87694321381971,5.923977914274196,0.18210432484537278,0.0817527533680957,68.0,2.9652,0.043605882352941175,3.0,64.8,71.0,0.0,1.8867924528301887,58.0,104.0,1.65625,0.0,4.1888849547826235,18.10066955421011,0.23142154726581995,238.20065181181198,4.321118805982921,3.0839130555127725,312.86057444631916,0.7547169811320755,0.7631578947368421,0.9655172413793104,0.5,58.490566037735846,57.826399408128324,58.924783136495094,57.89473684210527,0.8708240534521156,0.1291759465478842,3.915780041490243,1.5081478057277968,0.5591631565723679,0.440836843427632,13.535176204800564,12.018038251549603,0.5750583109558056,0.4249416890441943,9.963290827541188,8.564687770713858,1.5869754330156494,0.6162341967579361,1.1832704111752932,1.3560310203215902,1.0,1.0600079280752146,-0.2196510514099896,0.010073108882641539,0.21764594964570289,0.24530149541890345,0.1870571615397888,3.788736477225626,0.3238837932630574,0.15879096935001777,0.19530048761826033,0.1938755134489145,0.6530181058887179,1.2431212865773837,1.3761053507169607,0.4322958833632603
0,113.9365090119853,68.26785714285714,13.460367510082833,6.376091706880121,6.400862736463248,0.1971699138280509,0.09339815212798504,64.0,5.9304,0.0926625,8.25,60.0,70.0,0.0,1.7857142857142856,56.0,110.0,2.24,0.0,4.526093446397443,17.751919325262826,0.25496361060836625,252.41706025007431,3.9221283288776365,3.1090888144248447,278.5012227102548,0.5535714285714286,0.55,0.8181818181818182,0.2727272727272727,62.500000000000014,59.94907989463323,65.24765036907496,62.5,0.8711985688729875,0.12880143112701253,4.247003300803643,1.632993161855452,0.5948206747960578,0.40517932520394234,13.691100020578787,11.299753092751507,0.6118589740084222,0.3881410259915777,10.136154517629688,8.073137141898863,1.164243767386151,1.122032829206507,0.9498283902340354,1.059711435923917,1.0,1.4271428564424489,-0.4020678871155757,0.009724189041934722,0.3258431875660035,0.200247944738293,0.24187253642048673,4.17123154807936,0.37512507521099425,0.27378427766711483,0.28114954159552535,0.2816707931914307,0.9572605118358042,1.2881222007976623,1.5289102734253683,0.5185138323265718
0,111.06700382458972,69.65454545454546,11.392359658378881,2.8642108343667205,2.7421828415603264,0.16355515040742324,0.04112022863225519,66.0,1.4826,0.022463636363636363,3.0,65.0,69.2,0.0,0.0,63.0,114.0,1.1702127659574468,0.0,1.9390160825207028,14.916498306675525,0.1299913721475061,90.86532139575606,7.692818250008641,2.6653682770116047,458.9996415992659,0.509090909090909,0.6363636363636364,0.9523809523809523,0.2,15.492957746478877,18.65151008331861,12.413453950738198,69.6969696969697,0.029345372460496604,0.9706546275395034,0.3502020979862374,2.014101232208775,0.04961430155446966,0.9503856984455303,3.3225408110830985,14.541755199828561,0.04924061005012946,0.9507593899498706,2.3624054426311645,10.380733309003894,1.6204970802786516,0.9628176330476572,0.6825991340378987,1.1640079505617273,1.0498393736138087,-0.8264346690219515,0.0,0.0019180724292081266,0.10458531400550133,0.05791805724969645,0.04045495469231352,3.1466847779260063,0.2307204816491539,0.035909272615658815,0.02883977752840629,0.028698882787826768,0.45001501340171685,1.3725659577678948,1.0904435496284843,0.31534689346498146
0,119.32494997625004,65.35593220338983,3.0101134808737964,1.1670771035014103,1.1771416363131175,0.04605723427685529,0.017857248212288176,64.0,2.9652,0.04633125,3.0,63.0,68.0,0.0,0.0,61.0,75.0,1.2826086956521738,0.0,0.832364833454034,4.1969978899883,0.1983238627399821,10.974944861404493,5.042257579013965,1.7473724569672555,84.64937767959648,0.5084745762711864,0.5454545454545455,0.7222222222222222,0.18181818181818182,48.88888888888891,48.83067392226823,48.947868520358625,54.54545454545454,0.5569620253164556,0.4430379746835443,0.6212607441973954,0.5540916385036405,0.41837853257385954,0.5816214674261406,2.714710027038827,3.2008031425973535,0.4236241692373036,0.5763758307626963,1.9692150013629606,2.296971734863181,1.7048862563878133,1.6236122233716843,0.08127403301612901,0.8930801447019712,0.9812577824987063,-1.434825160397179,0.0,0.0071088319421170115,0.38935529934030466,0.5093873801064301,0.775064303027832,3.183669159644118,0.7307524094423502,0.4569322898809802,0.4953814800606753,0.5008190179466879,1.267425261130689,1.2004244759624947,1.5312743060013856,0.4985290719798171
0,116.34115401327028,66.94642857142857,7.102930618880025,4.283159411632322,4.294150747206093,0.10609872356822657,0.06397890825591093,65.0,2.9652,0.04561846153846154,5.25,63.0,70.0,0.0,1.7857142857142856,58.0,90.0,1.6,0.0,3.036423112786708,9.123451854280468,0.33281516264725,87.03047338824585,3.004670796984985,2.646641455765444,109.65187741702013,0.5178571428571429,0.43902439024390244,0.6666666666666666,0.18181818181818182,60.97560975609756,60.17488306236033,61.82368482720523,65.85365853658537,0.8870168483647175,0.11298315163528247,2.878721424007025,1.0274023338281626,0.3390846760181145,0.6609153239818853,5.31267521182465,7.417065176404859,0.39437857228465045,0.6056214277153497,4.2726780210643724,5.294733769822294,1.7091471258377346,0.4671926370046049,1.5762350300009174,1.58969685970275,1.0,0.8419217687219867,-0.4711856980706225,0.0009123888582289985,0.03769252442851147,0.31202352660771293,0.4653632496892333,3.963455261947222,0.5784297233584331,0.34106694793360587,0.47638652562117995,0.45452105802717063,1.0692180572106547,1.3872085526186941,1.6087339208272369,0.6222165987918861
0,112.45005262774518,69.19642857142857,9.158045926659529,3.9335387722415134,3.9472958821381483,0.13234853468204738,0.05684597967626445,69.0,9.636899999999999,0.13966521739130433,11.25,60.0,76.0,0.0,0.0,55.0,95.0,2.6666666666666665,0.0,2.7911596856096197,12.412278052986345,0.2248708636476346,108.83937826570956,4.446996750841709,2.743756162211896,220.7894406886965,0.5,0.4444444444444444,0.6,0.07142857142857142,41.35338345864661,41.99117899872738,40.72993004006405,68.88888888888889,0.5581668625146886,0.4418331374853115,2.0971762320196525,1.8658728470829629,0.42363534640946715,0.5763646535905327,8.078813642763558,9.423238115963315,0.4301811691207596,0.5698188308792407,5.901922484354176,6.79260252302552,1.602682136910311,0.6523114602835705,1.8438520752876912,1.550156382000507,0.9160801959181981,0.7281893189820794,-0.9502384384899658,0.0008369541578916221,0.050659275456430605,0.371565031519272,0.6567795363890705,4.425496386606636,0.5344605331817393,0.47566735228754836,0.6086133917834444,0.6121347514042814,1.2776622471113324,1.4353112042278855,1.4839210295116656,0.7259193652572005
0,117.95323599687974,66.12068965517241,2.5688934487672266,1.1239029738980326,1.1316809419557994,0.03885158279752259,0.01699775032231705,66.0,2.2239,0.03369545454545454,3.0,64.0,68.0,0.0,0.0,62.0,73.0,1.183673469387755,0.0,0.8002192681965252,3.5383682857092866,0.2261548837153102,8.895326859452931,4.42174842113437,1.6561320208582602,62.58309752290786,0.6551724137931034,0.75,0.9583333333333334,0.23076923076923078,54.545454545454554,54.46218401921462,54.624298769379735,50.0,0.6111111111111112,0.38888888888888895,0.6267831705280086,0.49999999999999994,0.4662696426784105,0.5337303573215895,2.4161372680883866,2.5850204693711167,0.47334348819497335,0.5266565118050267,1.7650179094137763,1.861764059577323,1.5420980731501606,0.48323524297721643,1.0588628301729441,1.3004804516615525,0.9689685013294949,-0.976612670854222,0.0,0.00033916175444782993,0.02903063069152869,0.5868910156500169,1.6529230243738393,3.1646089556094736,0.8166724981148622,0.7040184585448801,0.7876027231773265,0.8491570667593749,1.7863219771959835,1.4216524075224695,1.8337731365489927,0.8079973786382858
0,119.46988965352138,65.1864406779661,2.2778890429759477,1.0907131485472215,1.0990013615735297,0.03494421568787855,0.01673220898707386,65.0,1.4826,0.02280923076923077,2.0,63.0,67.4,0.0,0.0,60.0,70.0,1.0925925925925926,0.0,0.7771113153018916,3.1119707206985683,0.24971678240193962,7.597463242303122,4.004536620972547,1.5876387175352866,49.84800285772698,0.7627118644067796,0.7941176470588235,0.9629629629629629,0.5,46.666666666666664,46.79044949801534,46.54139955121859,55.88235294117647,0.4782608695652176,0.5217391304347826,0.5380275868489703,0.5619514869490163,0.4587717970852313,0.5412282029147688,2.1078216364849065,2.2894212620772234,0.4599181962630795,0.5400818037369205,1.5382434357806367,1.6669191925428595,1.6927750424324521,0.6380413826444227,1.1240282480135484,1.4430489393357597,1.1385891764510379,-0.33657181942590286,0.0,0.00037864605800926125,0.03809912017083223,0.6115747608861977,1.493925025312256,3.0255648227245953,0.9729151905000699,0.7200548466080366,0.7540465610434919,0.7400655235264207,1.8526698691472576,1.358610789422653,1.6566440492815113,0.7976465151677073
0,111.92428218632918,69.77777777777777,8.708414206238778,3.392555668263109,3.4146232104121874,0.12480211442061945,0.048619428366828,66.0,4.4478,0.06739090909090908,8.75,63.0,75.80000000000001,0.0,0.0,62.0,95.0,1.588235294117647,0.0,2.4145032272794364,12.109757487872924,0.19938493646114652,91.85718007878022,5.015424022239848,2.6700832188531542,242.94227443270694,0.4444444444444444,0.37777777777777777,0.5882352941176471,0.375,56.48148148148149,56.60573381867272,56.28733414931254,57.77777777777777,0.7721311475409836,0.2278688524590165,2.1281085860092177,1.1560875665530106,0.5442306163385693,0.45576938366143066,8.93360879967397,8.175381350706655,0.5529953540560502,0.4470046459439499,6.49377441629513,5.838381569023245,1.736154221839869,0.5013876861611655,1.5844655457546866,1.5767405980130031,1.0,0.9743663853390032,-0.5154071349474673,0.00070603712327746,0.035590048096314414,0.3260724596454705,0.5108256237659907,4.075198161344252,0.52513393186364,0.5674439316064402,0.6654219632402113,0.6619623797626512,1.0040337673420816,1.3442162206632802,1.4762972475330385,0.5328599539040249
0,113.59943744234128,68.55357142857143,7.883053498964247,3.0925129528647677,3.0843364461633094,0.11499114246991347,0.04511089485814717,66.0,2.9652,0.044927272727272725,4.0,64.0,70.0,0.0,0.0,61.0,99.0,1.3333333333333333,0.0,2.180955216542893,10.196998964341807,0.21388206708361363,69.86650132356533,4.675473795608431,2.5512391057721167,190.7032058065057,0.6428571428571429,0.6499999999999999,0.8846153846153846,0.2727272727272727,64.77272727272727,62.38319140255464,67.43874271577218,50.0,0.8840304182509504,0.11596958174904941,2.074983266331455,0.7515416254704823,0.7665041108488199,0.23349588915118008,8.927495077017312,4.927333916898623,0.7717627334649007,0.22823726653509938,6.480961499103505,3.5244456545274137,1.3416538602639405,0.4373662292173599,1.0017978973177488,1.1584145496573108,1.0,0.9063511855265309,-0.14190959000236933,0.0008993514332745218,0.04154467895559954,0.4183984588352492,0.5415972824327446,3.6300439322497744,0.46365900532709176,0.3252509344003638,0.5743315778968702,0.4768098293377126,0.9368655641446513,1.409369749038353,1.437302599428831,0.6222165987918861
0,112.89939960457322,68.85714285714286,6.467902769350063,3.330301651638946,3.3481488930603143,0.0939321978951254,0.04836537668355315,66.0,1.4826,0.022463636363636363,5.0,65.0,72.0,0.0,0.0,64.0,88.0,1.302325581395349,0.0,2.3674987867051813,8.749353030434792,0.2705912972616137,65.07520998593633,3.6956103545088435,2.5203856881350934,129.33679861811257,0.5357142857142857,0.59375,0.8421052631578947,0.4,39.47368421052633,39.210173410260715,39.805559793578894,71.875,0.6786885245901638,0.321311475409836,1.9578900207451215,1.3471506281091268,0.4101450382198282,0.5898549617801719,5.603310272654145,6.719679489346719,0.42859742047148863,0.5714025795285113,4.1970477329287545,4.8460761062101465,1.5699860898157605,1.4205849905824268,0.14940109923333367,0.8596935945245471,0.8109696257448589,-1.4148137633797944,0.0,0.012437435255650782,0.43427905624448343,0.25862966388581876,0.13129675482310663,3.0709272833360157,0.4383848389948876,0.13439221525316092,0.14014929563363357,0.1384365643686822,0.6337008169286705,1.2893575367586345,1.596665920313127,0.5185138323265718
0,111.12115368975778,70.37037037037037,9.005860348403953,3.8041685179822866,3.8401477051902306,0.12797801547731935,0.05405923683448513,66.0,4.4478,0.06739090909090908,10.5,64.0,78.80000000000001,0.0,0.0,61.0,95.0,1.588235294117647,0.0,2.715394483097971,12.510735593074685,0.2170451499751203,106.72487372672234,4.607336308204211,2.735235759595469,230.5646653612629,0.5185185185185185,0.46511627906976744,0.8,0.42857142857142855,48.87218045112781,48.645013176648916,49.08895050503374,60.46511627906976,0.6558018252933507,0.34419817470664926,2.199213145999828,1.593255013631383,0.43678168184409794,0.5632183181559021,8.268277685739049,9.389040909024494,0.4466373106998693,0.5533626893001308,6.049832822071563,6.733964312713464,1.918356045403214,0.9094410296602806,2.1892369159735128,1.9694294302187432,0.8054895315749082,0.7761318408337594,-0.7416951496424987,0.0006909559978269483,0.07103920516201326,0.4443496772717852,0.7099542988763266,4.0644391222533915,0.5974157514872909,0.4345123806270346,0.6978408311341119,0.645392281836079,1.053761671166266,1.2183479414204925,1.6223558621144472,0.5328599539040249
0,109.5276316268897,71.33333333333333,5.700049652216711,2.351234119944769,2.3736580503334754,0.07990723811518755,0.03296122598053415,69.5,3.7064999999999997,0.05333093525179856,6.0,67.0,74.0,0.0,0.0,66.0,89.0,1.6875,0.0,1.6784297036088398,7.904959770265819,0.2123261537550367,41.682397751812914,4.709735387349937,2.3269228034689458,148.92107506239424,0.4074074074074074,0.41304347826086957,0.6842105263157895,0.2857142857142857,50.53763440860214,50.57995563335612,50.49746451715873,58.69565217391305,0.6518771331058022,0.34812286689419786,1.3551894559575284,0.990337937660287,0.41607924204009106,0.5839207579599089,5.09903142947214,6.04055191607326,0.4262516350515212,0.5737483649484791,3.730727809709732,4.328338981731073,1.4890993511733173,1.4930817640064555,1.7707655329639853,1.6307200754091613,0.11992832396359887,0.5775294377850164,-0.5937962413920544,0.0002895211146558223,0.11921218591478902,0.4641687168756685,0.6315892875605121,3.6846939847223417,0.727771022646509,0.556606581443787,0.5157955650970987,0.5122332350275234,1.5080687764271958,1.4508348837515308,1.5429475101028043,0.7460039354656347
0,112.12005998497628,69.65454545454546,9.615223619475797,3.80058475033046,3.836089611575352,0.13804158158996838,0.05456334149521673,65.0,1.4826,0.02280923076923077,6.0,64.0,72.0,0.0,1.8181818181818181,63.0,99.0,1.3095238095238095,0.0,2.7125249775842004,13.40778479919496,0.20230970426576864,114.25642978895988,4.9429166219645495,2.764850759345182,265.0942493906575,0.5818181818181818,0.5952380952380952,0.88,0.5,49.05660377358489,48.8086357610559,49.30978991214279,57.14285714285714,0.6846153846153847,0.3153846153846154,2.2444901089237623,1.5234023490139206,0.37620403232320104,0.6237959676767989,8.223728307489832,10.589569677098016,0.3883318374895386,0.6116681625104613,6.027745976916504,7.565042652328369,1.8060320843061517,1.487997991718589,0.31803409258756266,1.0620330884468572,0.8733061442209376,-0.9526799784651723,0.0,0.015245247733923837,0.5206030235697529,0.37636608075763256,0.26881358814739836,3.548741758625183,0.48245055712563345,0.2620367149102536,0.2937359006408233,0.2923926061294792,0.6732794517172135,1.2207256401182676,1.3987083648595438,0.6306937869299629
0,125.88072610138326,61.935483870967744,2.481875069456827,0.8777766249329544,0.8774653014172452,0.04007194122560502,0.014172435090063325,61.0,1.4826,0.024304918032786883,3.0,60.0,64.80000000000001,0.0,0.0,58.0,68.0,1.441860465116279,0.0,0.6204616648880319,3.422562552566353,0.18128570489465234,6.671388328550413,5.516154738075536,1.531186330787984,75.51753856279515,0.7580645161290323,0.9142857142857143,0.96875,0.6,41.025641025641036,41.011658006366645,41.0466283818099,54.285714285714285,0.3404255319148936,0.6595744680851064,0.3651483716701107,0.5082650227325635,0.5313659902120368,0.46863400978796305,2.494872013886145,2.342978459260178,0.5251882703070804,0.4748117296929196,1.78293573902786,1.6952700955733468,1.2447500131512794,0.7022656182906877,0.6120643426625287,0.9631971518078726,1.1298308968554167,-0.7401282532983569,0.0,0.00015421613453296597,0.032778269351204106,0.53230373707484,1.0334729864971484,3.014082869585075,0.7013930900487458,0.5112684745439071,1.0787063452116805,1.0288924166694318,1.4699984992948225,1.5385105675480342,1.626938853203946,0.4801771218053932
0,109.98243813593425,71.0925925925926,8.93850799782122,4.9602191065421355,5.007106705641851,0.12573051103994423,0.06977125078230667,67.5,3.7064999999999997,0.054911111111111105,6.0,65.0,73.0,0.0,1.8518518518518516,63.0,91.0,1.4210526315789473,0.0,3.5405591056839874,12.254556926188082,0.28891775745215115,136.30736899602914,3.4611925858022556,2.841489445090698,169.66152630085548,0.5370370370370371,0.525,0.8571428571428571,0.2,48.412698412698404,48.19771469696792,48.64840335977029,55.00000000000001,0.6526073619631902,0.34739263803680975,2.860540562147705,2.0870479704044254,0.4443283396335827,0.5556716603664172,8.16863743799721,9.134961842489254,0.4603780990097743,0.5396219009902254,6.120021646250197,6.625831913597865,1.6470683913859758,0.6350172645401266,1.1821200582126028,1.4250066699755124,1.0,1.1848841855193353,-0.11751179798425522,0.0057589258958140295,0.1638999060218687,0.504040072594317,0.5611507076535067,3.698673382910554,0.5334969376382,0.4487572036899774,0.475320450770124,0.46058090636845656,1.1127368548341774,1.3890463322573339,1.9612367504895991,0.42628796312321987
0,109.92291391075784,71.07407407407408,5.050133014694525,2.6811712450500096,2.671138002671867,0.07105450307282553,0.03772361835140712,70.0,2.9652,0.042359999999999995,4.0,68.0,73.0,0.0,0.0,66.0,93.0,1.6363636363636365,0.0,1.8887797951743674,6.243312823113776,0.3025284570367502,37.04642434021528,3.3054741685953966,2.2757164069127005,82.54843705305196,0.6296296296296297,0.696969696969697,0.8695652173913043,0.5555555555555556,64.55696202531644,63.11590972641711,66.14930405366415,42.42424242424242,0.8215223097112861,0.17847769028871394,1.7348243094375246,0.8086075400626399,0.8834708157155307,0.11652918428446933,5.8682850285241095,2.131240444261669,0.8781487447004328,0.12185125529956736,4.327030422854431,1.6118362176571834,0.9942255982963462,0.9880626829924701,0.4580100217096459,0.6595772449631706,1.0,1.7657299715637071,-0.29599753464724177,0.005982693626708279,0.2253435393349168,0.5954465384631034,0.6834852696482084,3.339708975776218,0.7063578116646309,0.652963136386505,0.6242845474118387,0.6225194570084563,1.2707980613369354,1.5018948049364478,1.4509506908934877,1.0657199078080497
1,108.57801014404194,71.43396226415095,6.709664195318067,4.164871408117404,4.20263509952849,0.0939282098129576,0.05830379942689445,71.0,5.9304,0.08352676056338028,8.0,66.0,76.0,0.0,0.0,62.0,91.0,2.409090909090909,0.0,2.971711777729196,9.027776810921555,0.32917426294080526,84.28249275373047,3.0379045769438786,2.632707481857278,109.70209797410563,0.5849056603773585,0.5609756097560976,0.7391304347826086,0.2,47.058823529411754,47.03271346910421,47.11217357861155,63.41463414634146,0.6674057649667406,0.3325942350332595,2.4293951478328357,1.7149858514250884,0.4053458940430349,0.5946541059569651,5.747694847086684,6.961663457291378,0.43099711817782543,0.5690028818221746,4.412366532799635,5.069809393023291,1.406551216351496,1.1321147153284674,1.9160232824188448,1.4326785082358993,0.9620415521585097,1.209864141586674,-0.9269397505735182,0.0013218021182658825,0.12683027824199883,0.42907029485682324,0.6286086594223742,4.143502181902122,0.8409302803777468,0.4703429069794356,0.5498197554236229,0.7837287523240756,1.2846494463844753,1.4386291009094936,2.0483797012475367,0.8645917667265206
1,98.98907979347176,78.95918367346938,17.295181390194436,8.915108898194495,9.009426702268357,0.2190395161849386,0.11290781494224096,73.0,10.3782,0.14216712328767123,22.0,66.6,94.40000000000003,0.0,4.081632653061225,58.0,118.0,2.8823529411764706,15.625,6.37062671577711,23.782923242176565,0.2678655878802762,475.9893825553504,3.7332156321884646,3.384567375394363,355.14712330732766,0.5714285714285714,0.55,0.7727272727272727,0.2,50.23474178403755,50.11364029201507,50.398819412533754,60.0,0.6225425950196593,0.37745740498034075,5.0265253850755105,3.913968438320653,0.3684355487150312,0.631564451284969,14.435970887574658,18.900533920404452,0.3854476702942703,0.61455232970573,10.80886702928923,13.648247715595755,1.3880192022177695,2.1885678439818257,2.093597992936162,1.8658925970044304,0.23648437950047807,0.5975603775182003,-0.6040431058867475,0.005172201433306528,0.47119407036078587,0.3762645112464127,0.475845904869964,4.668494987449897,0.6097502272548161,0.33782866055596605,0.4515730210628431,0.5028320454968068,1.2681557361467997,1.3289888205392493,1.598393864759786,0.8021014063021725
1,106.43890691102766,73.4423076923077,7.0583380300610665,4.930894998901931,4.979329823399539,0.09610724733259372,0.06713970671455889,73.5,8.1543,0.11094285714285713,10.25,66.2,78.80000000000001,0.0,1.9230769230769231,64.0,94.0,2.3636363636363638,0.0,3.5209178838902275,9.41221567547029,0.3740796009452155,104.11124485043673,2.6732278303153225,2.7244677492970366,100.64398755438923,0.5961538461538461,0.6,0.875,0.23076923076923078,51.587301587301596,51.54144836862571,51.64333184463741,55.00000000000001,0.7314516129032257,0.26854838709677414,3.0116440692751194,1.8248287590894658,0.45510694982008665,0.5448930501799132,6.349632701810762,6.947803140105796,0.4890378387729178,0.5109621612270823,4.96929750809431,5.0794669244746515,1.1259560603063552,1.437896960927002,1.6171322888761497,1.257990885892534,0.7684597533697648,0.9814699224629462,-0.7497685249658499,0.002466537965358466,0.21650300389361612,0.5208531851106657,0.8266785731844678,4.109496334425698,0.7562866150536108,0.42357950021273244,0.6263120542668146,0.7675283643313486,1.3429860352704928,1.495918850769136,1.6705295593413179,0.5481192036674126
1,102.3993662837923,76.34,14.780861867665918,8.393389040896217,8.480269216622464,0.19361883504933083,0.1099474592729397,74.0,14.825999999999999,0.20035135135135135,19.5,63.0,85.0,0.0,6.0,59.0,117.0,4.166666666666667,0.0,5.996455869361274,20.237997198642084,0.29629690183787655,381.25192572826273,3.374993102517034,3.288182155971836,273.21240381670435,0.5,0.425,0.6470588235294118,0.3,49.51456310679611,49.31603167705014,49.70980579624542,60.0,0.5932792584009269,0.40672074159907307,4.618802153517006,3.824264635194589,0.512190803797633,0.48780919620236696,14.483830033210536,14.134892931370697,0.5187353099992089,0.48126469000079114,10.749759666249865,10.354230975338373,1.3629141937265403,1.2346886155510992,1.985214888411785,1.4713997044867182,0.6806378896139478,0.7740894337159103,-0.9161496084547011,0.003492554300880059,0.18959402240955103,0.36848116230885486,0.45020100194955576,4.631272380112911,0.5941572012397175,0.3577575637403205,0.4587976824906002,0.5638125232560682,1.1064858180316954,1.5589409964778806,1.6737973596499067,0.5643856189774724
1,109.20514962667053,71.38888888888889,11.427237680484698,5.8260961394758235,5.878116163972544,0.16007025544647827,0.08161068522222943,68.0,4.4478,0.06540882352941177,6.75,64.2,76.20000000000002,0.0,1.8518518518518516,57.0,108.0,1.8620689655172413,0.0,4.156455800147242,15.661595026715565,0.2653916023915288,204.5074008501343,3.7680167382414496,3.0176791391277247,236.05260883289316,0.5370370370370371,0.5227272727272727,0.8260869565217391,0.3,46.58385093167701,45.5720260699635,47.55957788628421,68.18181818181817,0.7676486937187327,0.23235130628126735,3.644015114382232,2.0048019276803304,0.3049088877080122,0.6950911122919877,8.648106549916271,13.05740448489427,0.33539254194748963,0.6646074580525103,6.635834275076151,9.34117344479182,1.5160061341864846,1.202285773365411,1.712366825453289,1.3987766441930953,1.0991814084608054,1.7504482472749734,-0.7608283223566717,0.004291063797026666,0.2100175498930508,0.26501995207890827,0.3415613061286842,4.302193576721349,0.5249723004973412,0.5332179727847953,0.5890590324923103,0.5661549071949913,1.0501938822168566,1.3739085551299413,1.5554832283441231,0.7460039354656347
1,108.6237996925967,72.28301886792453,13.033060562824545,7.539638840564835,7.598920301173698,0.18030598011738475,0.10430719356563202,68.0,7.412999999999999,0.10901470588235293,11.0,63.4,79.2,0.0,3.7735849056603774,56.0,104.0,2.409090909090909,0.0,5.3732480746560425,17.635812152735582,0.30467823245795744,297.7023265936741,3.282151113758972,3.1807523387060836,231.5336019965804,0.3584905660377358,0.375,0.5555555555555556,0.0,55.45454545454545,55.9805028962436,54.977259470509196,54.166666666666664,0.7483085250338296,0.25169147496617056,4.656852425169164,2.700762419587999,0.5461697934959091,0.4538302065040906,13.033447382298005,11.880703666847573,0.563399266229298,0.436600733770702,9.786649712157237,8.61525499525418,1.6022265734399108,1.714011402808639,2.0294315873490048,1.8365266752805232,-0.10169117769149771,0.2501715610293358,-0.6125458744045581,0.0016126657103057275,0.1954882744555523,0.4574174107843989,0.7750643030278321,4.51398278611721,0.6663709897485857,0.5403396660369306,0.859515156283619,0.9946701923196738,1.513691726843355,1.4115595108276306,1.6268180849569622,0.8645917667265206
1,105.64982337381308,73.75,11.373989935762364,6.513936793446772,6.576845897600483,0.15422359234932018,0.08832456669080369,71.5,12.6021,0.17625314685314686,18.5,63.0,85.0,0.0,1.9230769230769231,60.0,101.0,3.7142857142857144,0.0,4.650532333012228,15.543714447439179,0.29919054089277874,227.09488379254194,3.3423516566266414,3.0631774600965587,207.8102389341192,0.46153846153846156,0.45652173913043476,0.7142857142857143,0.2,47.82608695652172,47.379603103132546,48.29493584943979,71.73913043478261,0.7837338262476894,0.21626617375231055,4.118252056394799,2.1633307652783933,0.3308297209401178,0.669170279059882,8.940402443276861,12.715198109969759,0.36806031672590384,0.631939683274096,6.960272834011281,9.120204574892455,1.479996050668218,2.1674164220536714,1.9943769031970469,2.063958474115217,-0.5111266074757665,-0.4450229245546007,-0.467896537919446,0.0017451309111255265,0.33537696625789903,0.339939938832881,0.4585749334221128,4.6259338915848005,0.6157132859256046,0.44968364840817027,0.43091608436828494,0.4355828551779404,1.2800080754281313,1.3509253895452784,2.074903661458931,0.7673668851343778
1,102.85513838940065,76.3,20.454279528265182,9.849893814821828,9.910526596249364,0.26807705803755155,0.12909428328731098,68.5,14.825999999999999,0.21643795620437956,30.25,59.8,95.00000000000001,0.0,4.0,55.0,126.0,3.5714285714285716,0.0,7.007800561337557,27.90483554760313,0.25113212186407197,614.3432255874543,3.9819677091776455,3.495381183597593,444.46461632187265,0.52,0.5,0.8,0.09090909090909091,59.64912280701756,59.07138295552333,59.9507691745071,60.0,0.7980647875473283,0.2019352124526715,6.286559737514098,3.1622776601683795,0.47948299609449574,0.5205170039055041,19.322622648300293,20.13246385642274,0.49853204564657666,0.5014679543534233,14.368099723727225,14.410345258358106,1.6783309985941153,1.1290229923132449,2.0467881257718825,1.816152520860577,0.8209879294252254,0.7999204465012442,-0.7042789265422825,0.0013830743452833113,0.1269054826161237,0.1379238225642685,0.22015401246584387,4.7132696895151085,0.5111037412359383,0.23760120032703566,0.282761675313224,0.28346865121499204,0.9650272596461892,1.329643601613818,1.5221335362111972,0.45150849518197794
1,95.84968955892933,80.85106382978724,9.993429849056385,5.670288697504165,5.69231196078862,0.12360294813306581,0.0701325181007094,81.0,11.8608,0.14642962962962963,16.0,71.0,89.0,0.0,4.25531914893617,69.0,107.0,2.473684210526316,0.0,4.0250723881029264,13.11164434353313,0.3069845614053859,165.7985500937564,3.2574928049214122,2.9265508382928482,170.8443484389908,0.46808510638297873,0.48571428571428577,0.7058823529411765,0.0,39.59731543624161,40.07524090047747,39.09932113153838,60.0,0.4279918864097364,0.5720081135902638,2.652043237455478,3.065941943351178,0.46534466556549026,0.5346553344345096,8.944262369953996,9.58725132917299,0.4620856509968551,0.5379143490031447,6.596709887357045,7.117421866403918,1.4085009071771384,0.6028681018362447,1.530389468031471,1.4604412395069846,0.5657090191998524,0.08855037466801097,-0.6160257580579146,0.00020191672538975218,0.02173053701377819,0.27691493321183236,0.5996211225491219,4.144702415369331,0.594435474445323,0.395112593890212,0.4630960227611225,0.5760923036968868,1.0751966451705015,1.5655110871782865,1.5549163589940158,0.5909137076252805
1,108.8199452996285,71.67924528301887,20.2776625728768,7.719854522343918,7.784498461018074,0.2828944765365808,0.10769999728460848,59.0,2.9652,0.050257627118644066,36.0,58.0,99.2,0.0,1.8867924528301887,56.0,114.0,1.65625,0.0,5.504471649922123,28.28305471500676,0.1946208323460017,489.09342627850435,5.138196091064781,3.396361935632885,581.2955247200763,0.5849056603773585,0.6216216216216216,0.8695652173913043,0.4444444444444444,57.14285714285713,56.63187409770411,57.34214907120928,51.35135135135135,0.8409164246531139,0.1590835753468861,5.054603803251362,2.1984843263788196,0.5663183909778757,0.4336816090221243,21.284166439462467,18.625666242830775,0.5763663234814065,0.42363367651859335,15.46875496978641,13.26176414212414,1.3966871068095907,1.2442451876102254,0.15244191919936523,0.774564513004478,0.8404185035183078,-0.5843268841430078,0.0,0.016994720161572746,0.47642433858422933,0.10917337641380653,0.07822917160646246,3.676861034749436,0.34893696505408234,0.09681610127849832,0.09852405380455499,0.0983893146718565,0.3803992665914993,1.3464575432319021,1.4515897839201952,0.32422191252244525
1,100.70011239144216,77.42,8.708639857248967,5.490251100164468,5.547108090101121,0.11248566077562602,0.07091515241752089,76.0,4.4478,0.05852368421052632,5.5,72.0,80.0,0.0,2.0,67.0,111.0,1.7241379310344827,0.0,3.9223977464852604,11.780987508127943,0.33294303586852275,145.1721132738264,3.0035167949717803,2.868853308870958,141.53757536806006,0.56,0.5581395348837209,0.7916666666666666,0.16666666666666666,49.68553459119496,49.57398527901862,49.81261945651641,55.81395348837209,0.6533513879485442,0.34664861205145564,3.1705020632911327,2.309401076758503,0.5755779045331731,0.42442209546682674,8.937864211693231,7.675040716504376,0.5833389635835415,0.41666103641645835,6.705874290500829,5.6674325462829,1.3983329777178806,1.2850745075805294,1.7960969816073864,1.3733200405291242,0.826081408586246,1.3172633558185014,-0.8289902169752354,0.0018918553777885984,0.16080992001896743,0.5703648898589937,1.0266387890430204,4.058171939471839,0.727030804893662,0.7068433772603068,0.5872299827463373,0.6669650591494986,1.24965131687425,1.6006194541481813,1.599049189247644,0.7901398665684615
1,117.50399918349603,66.3157894736842,9.74708362012681,4.286607049870562,4.322359564843281,0.1469798323669916,0.06463931265677832,64.0,5.9304,0.0926625,8.0,59.0,71.0,0.0,0.0,55.0,98.0,2.4782608695652173,0.0,3.056369759027219,13.530767008715943,0.22588296414079378,129.92064933228116,4.427071354423593,2.82064829243095,239.60668411066467,0.47368421052631576,0.4222222222222223,0.631578947368421,0.23076923076923078,46.89655172413792,46.39461263615708,47.41163429488864,68.88888888888889,0.6938775510204083,0.3061224489795919,2.5477262590217755,1.6922282244532985,0.2803902419297736,0.7196097580702265,7.164796562013913,11.478124675621425,0.3004903364112796,0.6995096635887205,5.377044674631013,8.203992394948505,1.6439685662846715,1.0345464850253334,2.0293385408988547,1.7126675751879206,0.9686797596241323,0.9402059351549417,-0.8060964106443024,0.0018524926124251432,0.13139705381647926,0.3780487776489392,0.6225296133459923,4.341038041539174,0.5303966564729347,0.555096635741367,0.6138000680062591,0.6617470800815558,1.2063569829323815,1.3161363371688004,1.643124541462227,0.613988422543657
1,110.11775573696714,71.07407407407408,15.079477309208627,6.101345351177855,6.159467679108763,0.21216565260481132,0.08584487987587394,66.5,15.5673,0.23409473684210524,23.5,57.0,86.00000000000003,0.0,0.0,53.0,101.0,2.8421052631578947,0.0,4.355401364397172,20.95757342560668,0.20781992628381268,286.7603170818181,4.811858121027017,3.1644891618920252,403.37947954010195,0.3888888888888889,0.34090909090909094,0.6666666666666666,0.2,50.724637681159415,50.87210949882277,50.60605104702391,63.63636363636363,0.6158134820070956,0.38418651799290415,3.4179953639073744,2.6997150846823703,0.33713318885210525,0.6628668111478945,12.168631807355515,17.062950619008156,0.34867179672505644,0.6513282032749433,8.93751342294591,12.215415370857684,1.6770766058424378,0.8337583474581294,1.678649030635845,2.0575223687270885,0.07875233325041542,-0.8483808450607566,-0.04558375427807018,0.0007687579187428098,0.06474419631333132,0.37305894115506666,0.3602828853149317,4.819159261182344,0.6908495712151597,0.24314919566384027,0.28390286900341655,0.2884364712496051,1.2941857076320622,1.2973354706143692,1.655134321994204,0.5328599539040249
1,122.37170519729553,63.7,8.920173290100575,3.172979137997836,3.164217679657141,0.14003411758399645,0.049811289450515474,61.0,4.4478,0.07291475409836065,5.25,58.0,66.0,0.0,0.0,55.0,96.0,1.4285714285714286,0.0,2.237439778435927,12.029053568285617,0.1860029773526736,84.55371359430126,5.37625802679457,2.6341027965034245,258.6851832049497,0.5666666666666667,0.5208333333333334,0.8,0.14285714285714285,62.727272727272734,61.47112641368625,63.92275750927235,52.083333333333336,0.8333333333333334,0.16666666666666666,2.0657302290740542,0.9238226430771594,0.5883366114695415,0.4116633885304586,9.226657430636587,7.717961026486439,0.5967104071261287,0.4032895928738712,6.685747853517649,5.496379293781756,1.270121036046981,1.6017346428497674,1.7679332459336505,1.5316043296770583,0.4661300663783212,0.5546251218700178,-0.6475456108236015,0.002069132148683759,0.23201930029328693,0.4755157156102894,0.6151856390902334,3.9467784050651082,0.5323580101350209,0.6830552470158906,0.650690563371277,0.6771721753164373,1.0149928656447127,1.3659149373130877,1.4043923409682715,0.49224088296737656
1,116.98151142879416,66.63793103448276,4.315204761713074,2.0218108957678544,2.033553133277973,0.06475598348754419,0.030340241126658618,66.0,4.4478,0.06739090909090908,6.75,63.0,71.0,0.0,0.0,59.0,75.0,1.6571428571428573,0.0,1.4379392104440059,5.924757960645359,0.24270007652555264,26.764615721307315,4.120311844626531,2.134531122250125,97.64740160716963,0.6379310344827587,0.6046511627906977,0.8461538461538461,0.8571428571428571,44.30379746835444,44.21156952563777,44.409789750595586,60.46511627906976,0.5879828326180259,0.41201716738197436,1.105990183371573,0.9258200997725514,0.4855186592963919,0.5144813407036081,4.128322112423274,4.249672155391237,0.4912514248376391,0.5087485751623613,3.0221066948105295,3.075455761789662,1.636257572630284,0.699018425909002,1.4798042714625277,1.427659522094348,1.0,1.3804503578766667,-0.5745971027879141,0.0006906470852359975,0.05375044708453993,0.2820287511086259,1.791759469228055,3.8469041166545455,0.7385398074131785,0.0,0.0,0.0,1.7881009851488525,1.3689918385737294,1.8730750127603564,0.7069977063085001
1,109.28669013887632,71.5925925925926,4.8623253949095,2.8648817025858713,2.8781495022547845,0.06791659889423513,0.04001645420063038,71.5,3.7064999999999997,0.05183916083916083,5.0,68.0,76.4,0.0,0.0,61.0,82.0,1.9285714285714286,15.625,2.0351590303130447,6.455693586338856,0.3152502520596275,41.275384992552496,3.1720831100584075,2.3226612427594047,81.91198635575148,0.6851851851851852,0.6829268292682927,0.8571428571428571,0.18181818181818182,58.06451612903224,58.43936075356331,57.707209715623186,43.90243902439025,0.6298850574712644,0.3701149425287356,1.6231498343083994,1.2442173938170624,0.5271430418296297,0.47285695817037027,4.687131606869203,4.4392315754626255,0.5365139681968362,0.4634860318031639,3.50740773825397,3.2599734587616895,1.4846545718418933,0.5061232467935124,1.5844057608805326,1.4620942981758631,0.7010718835919345,0.355059062220044,-0.7416633961778286,0.00012581776432474395,0.015251796619524052,0.1717179970957603,0.9555114450274363,3.88200920753815,0.8374956819163482,0.7368745579711938,0.7565050639139242,0.9234131539496682,1.5815295263246876,1.6427866498691976,1.6315655559090987,0.6394319446848298
1,112.31180613862387,69.2909090909091,2.852372159453765,1.46565621758588,1.4718414522824406,0.041165171548138826,0.021152215158022406,69.0,2.9652,0.04297391304347826,4.0,67.0,71.2,0.0,0.0,64.0,76.0,1.4473684210526316,0.0,1.0407490717403698,3.8430057535116187,0.27081642300154396,12.565128650609248,3.6925382475578257,1.8061370495249787,56.76178292170574,0.7454545454545455,0.7567567567567568,1.0,0.38461538461538464,43.103448275862064,43.238349094863736,42.96883819846745,54.054054054054056,0.4224137931034481,0.5775862068965517,0.6799001036500848,0.7950317425726554,0.5170367916890107,0.48296320831098916,2.7633236800446856,2.670718154509701,0.5105090553108175,0.48949094468918253,2.012240282823985,1.9703820609878957,1.532831779990191,0.17869374975165497,1.4093817682215084,1.4434849051143634,0.986031668022628,0.49428015239679723,-0.30915316321779074,9.606139373941263e-05,0.0049819872820488,0.35961269746614377,2.7725887222397816,3.4271091975939227,0.9815545069772442,1.2130075659799044,1.141087047866959,1.2687934538084567,2.2098636549617705,1.526993135212109,1.71463281906652,0.8409250492399505
1,107.97949115262647,72.39622641509433,3.8247152867466405,2.2188007849009166,2.2350559530182172,0.05283031279582277,0.0306480170966246,72.0,4.4478,0.061775,6.0,68.0,76.0,0.0,0.0,67.0,80.0,1.65625,0.0,1.5804232207105429,5.159010042186836,0.30634234238486235,25.614722069433952,3.264321844035799,2.115459757920939,67.36267669724215,0.49056603773584906,0.4871794871794871,0.6842105263157895,0.15384615384615385,54.99999999999999,55.161114855447714,54.84036303625296,51.28205128205128,0.5546875,0.4453125,1.1798969712415985,1.0571882797418486,0.45912235503360965,0.5408776449663903,3.495671332482601,3.7941621671515207,0.4673574871529299,0.5326425128470701,2.608819170380134,2.7850775222125734,1.4022559025127124,1.04219376157782,1.7088564906970578,1.742735013972155,0.48349626614823293,-0.1581458258591737,-0.4674930665255499,0.0010523950986797877,0.108733848603918,0.3204896640374608,1.1700712526502548,3.592854124448642,0.9565193642330475,0.0,0.0,0.0,1.596790870365935,1.4752888680391119,1.8514224767055552,1.0807397084081507
1,104.71586725134276,74.49019607843137,4.0810417739572715,1.7435595774162693,1.7538296289397495,0.05478629388571225,0.0234065644770281,74.0,4.4478,0.060105405405405404,7.0,71.0,78.0,0.0,0.0,68.0,84.0,1.6451612903225807,0.0,1.240144823669183,5.636977044842531,0.22000175161327562,21.961830928704153,4.545418355385753,2.0486386538038817,102.4896757140615,0.5686274509803921,0.5789473684210527,0.8181818181818182,0.08333333333333333,43.93939393939393,43.854326806189206,44.035200711486645,60.526315789473685,0.493421052631579,0.5065789473684211,0.8748177652797063,0.8864052604279182,0.4682080924855491,0.5317919075144507,3.857142857142857,4.110712734268045,0.46938150642988374,0.5306184935701163,2.7966817072074135,2.973522613785521,1.6763263311091328,0.6174556492586447,1.7812255514555728,1.764516418201703,0.5191674714670818,0.08672880471077704,-0.5270612687306883,2.930540462342627e-05,0.0182877963082557,0.2375710926706054,1.0498221244986778,3.730098870874208,0.7290584146048281,0.6090291214046422,0.0,0.0,1.67600732257242,1.4087709935125339,1.9319077118848769,0.5561201315658328
1,99.59605456829385,78.51020408163265,5.657305192476037,2.846781808756454,2.8595212365232854,0.07205821534476886,0.036260023038488756,78.0,5.9304,0.07603076923076922,9.0,73.0,83.0,0.0,0.0,67.0,91.0,2.3333333333333335,0.0,2.0219868572925566,7.625065399091705,0.2651763298362549,48.43639073797882,3.77107564848452,2.392141883966683,115.01879377846652,0.4897959183673469,0.47619047619047616,0.75,0.3,57.73195876288659,58.29168502546561,57.20717453052344,52.38095238095239,0.6786632390745504,0.3213367609254498,1.6758611631927844,1.1531640100361062,0.6062432100177255,0.3937567899822747,5.936999558977402,4.7847318187258585,0.6110552850996596,0.38894471490034066,4.362136770070131,3.4801900674510735,1.8089809935708845,1.0209451707269737,2.088778280992726,1.904108914886452,0.8259978526391212,0.8550370201415509,-0.6808807871384301,0.0006495030043488624,0.08555651010350693,0.5072467243648973,0.8194409058842376,4.02800359999573,0.9302424157625958,0.0,0.551433816751032,0.6310472495306657,1.5128266577364542,1.3399387308637278,1.5644099380004222,0.687515491116148
1,102.66769630965541,75.88,2.5204469963132516,1.6781914463529615,1.695582495781317,0.03321622293507185,0.022116387010450204,76.0,2.9652,0.039015789473684205,3.0,73.0,78.0,0.0,0.0,71.0,82.0,1.1627906976744187,0.0,1.1989578808281796,3.3958633298620886,0.35306423267536835,12.790985383352847,2.8323458097764016,1.8138741126162343,38.4730370916329,0.64,0.6666666666666666,0.875,0.25,50.0,50.00074360090311,49.99912444026845,50.0,0.4782608695652173,0.5217391304347827,0.8291561975888498,0.8660254037844386,0.541901707038307,0.45809829296169297,2.4998299261877683,2.298420782893788,0.5348478888014685,0.46515211119853134,1.8623439075347956,1.7367697163467144,1.5223921662495317,0.6509218334743694,1.6510895073388343,1.662305736133389,0.5969275485156302,0.06590814317317584,-0.4827687009134617,0.0001174754820093766,0.026926786196831795,0.32957129806672203,1.845826690498331,3.1680471909383083,1.2554030774226046,0.0,0.634743467764569,0.8080302629045554,2.095871056771301,1.5661565606524206,2.5525209958180803,0.9030169903639559
1,101.21194730582492,77.1,4.348351787206978,2.080031396937291,2.0951028094852355,0.056398855865200756,0.026978357936929848,76.0,4.4478,0.05852368421052632,6.0,73.0,81.0,0.0,0.0,71.0,89.0,1.5151515151515151,0.0,1.481461403869997,5.973083047173827,0.2480229041133042,27.79961408860832,4.031885698520692,2.1510088770902556,96.3311524559062,0.46,0.43243243243243246,0.625,0.09090909090909091,55.55555555555556,55.712952348688475,55.39140621095893,54.054054054054056,0.7264150943396225,0.2735849056603773,1.2665570127975552,0.7772815877574012,0.3830921648159706,0.6169078351840296,3.697006276363229,4.691467327070099,0.4031040525919935,0.5968959474080067,2.7633333199358865,3.362590693768194,1.628272568957859,0.7339883513824779,1.7022038749115533,1.4493066728150965,1.0325437289367576,1.330896607864,-0.8445520649205416,0.0006859515655426176,0.054836701307356926,0.24291650863958258,1.5404450409471488,3.8186885704510973,0.8290108930760848,0.0,0.0,0.0,1.7676487799689482,1.3783193303934702,1.589557229995548,0.6772627427729669
1,102.380378687357,76.12,2.7303285292343524,1.538618516324144,1.549632390025998,0.035868740531192225,0.020213065111982974,76.0,2.9652,0.039015789473684205,3.75,74.0,78.0,0.0,0.0,71.0,83.0,1.2195121951219512,0.0,1.0957555713337002,3.666821270704712,0.2988298284642358,12.622730272787274,3.346386152745394,1.8081234121091643,49.08239969951407,0.58,0.6052631578947368,0.8695652173913043,0.15384615384615385,44.827586206896555,44.63184160474052,45.01791041957476,55.26315789473685,0.396551724137931,0.603448275862069,0.6922186552431728,0.8539125638299665,0.47058485676081674,0.5294151432391832,2.515409609991809,2.668012879514147,0.4644802271863306,0.5355197728136695,1.8447834795316511,1.9808406538538172,1.5751162154826504,0.5867017526101965,1.0066822452723851,1.3000331215774834,1.0,-0.9666226734040624,0.0,0.0007647095194062134,0.04668183771167098,0.3993869403142978,2.2512917986064953,3.307601311512057,1.0105714694806776,1.0826833350715828,0.0,0.0,2.0097879373518936,1.5223849884960972,2.397715584854273,1.1287712379549448
1,97.12157114929741,80.5,4.192191322578966,2.3155349549638795,2.3370086907672283,0.052076910839490266,0.028764409378433286,79.5,5.1891,0.06527169811320754,7.0,77.0,84.6,0.0,0.0,73.0,88.0,2.1818181818181817,0.0,1.6525146929334025,5.646542416213158,0.2926595730846662,29.31418316576019,3.416939310953962,2.174047907116569,77.17557101171084,0.5208333333333334,0.5128205128205129,0.75,0.3,53.40909090909092,53.60576298018584,53.217840642712744,48.717948717948715,0.5515873015873015,0.44841269841269826,1.2291743428893198,1.108269312741816,0.5133926311591689,0.48660736884083083,4.045827949616972,3.938872612841457,0.5164143646440249,0.48358563535597504,2.98994927742255,2.8933525821923003,1.5826433068958332,1.2729325522775232,1.8488682853661802,1.9218747345035294,0.16436607668490133,-0.14199699900355078,-0.4426470404840174,0.0006124649230166789,0.11527802994246694,0.2360834616418206,2.3025850929940455,3.803175262485105,1.0412833965259838,0.0,0.0,0.0,1.9680408309156292,1.4882257987321554,1.8502666075702097,0.8144736980218353
1,101.39104389414466,76.87755102040816,4.666514817743289,1.75,1.7673907923167296,0.060700617485909526,0.022763472259092116,78.0,4.4478,0.05702307692307692,6.0,72.6,81.0,0.0,0.0,68.0,83.0,2.0416666666666665,0.0,1.2497340142538247,6.520817047313857,0.19165297924876332,25.601739746307967,5.217763918514471,2.115239588420088,136.09633563483325,0.5918367346938775,0.59375,0.7894736842105263,0.3333333333333333,52.63157894736842,52.51826452561913,52.74150132082611,46.875,0.5714285714285715,0.42857142857142866,0.9453131868733217,0.8186652343647228,0.5175915187685143,0.48240848123148566,4.691325763442059,4.529074689801856,0.5195012886835485,0.4804987113164515,3.3839440332260087,3.254437763405626,1.4068932333662223,1.0027428177552213,1.364076136308622,1.0912742465193466,1.0,2.027446301429017,-0.7720556906106595,0.001107497815439868,0.09605144026980406,0.27681544248653056,1.5404450409471488,3.73195793822682,0.7549495829329156,0.7874707383453123,0.8060469844919128,0.9019410086425066,1.6974725894268599,1.4182939690515444,1.8168384659504673,0.45834366074409866
1,102.58564261394731,76.0,5.440588203494177,2.814249455894058,2.841672402092881,0.07158668688808127,0.03702959810386918,75.0,5.9304,0.07907199999999999,8.0,71.0,80.0,0.0,0.0,69.0,90.0,1.9615384615384615,0.0,2.009365825430542,7.471906567610573,0.26892277188539754,47.16722401483255,3.7185396870226883,2.38061042694278,111.13832443754156,0.5686274509803921,0.525,0.8095238095238095,0.3333333333333333,47.95918367346938,47.82367220852854,48.09833302451899,60.0,0.6237373737373737,0.3762626262626263,1.587579340778062,1.2330483215451478,0.3965182553259932,0.6034817446740068,4.705036814794484,5.804482433992768,0.4118539425423704,0.5881460574576294,3.511251884430732,4.195975720246479,1.655849102169975,1.0774788273717375,1.836009897200319,2.011464241858946,-0.20647929132553777,-0.8202779435245438,-0.3371621416574768,0.00020872544188403513,0.06871690132514037,0.4913387014318782,0.8034952377288106,3.944210332414288,0.880617024747241,0.9656546374179245,0.7791160414394502,0.9177076253426275,1.6871424993757487,1.4519213368207569,1.9222701562253568,1.0010162368184992
1,100.09508603089438,78.16326530612245,6.929246407966232,3.851406669430448,3.8901129448133323,0.08865093315674813,0.049273871227700244,77.0,5.9304,0.07701818181818182,8.0,73.0,82.4,0.0,0.0,68.0,101.0,1.6333333333333333,0.0,2.7507252428590765,9.46995060911128,0.2904688056358535,81.83607647696614,3.4427104756083553,2.619914909487379,130.4091926619245,0.5102040816326531,0.46341463414634143,0.6842105263157895,0.4444444444444444,52.542372881355945,52.708057412031614,52.377404024915364,56.09756097560976,0.6882022471910115,0.3117977528089887,2.2831482556870477,1.5367830450846254,0.4171274717688655,0.5828725282311346,6.1162060851869215,7.229936905847072,0.4382395915942741,0.5617604084057258,4.616315783930099,5.226551912599219,1.4176674412047812,0.9637926245684598,1.6906001945301856,1.2910562729937642,0.996405355346055,1.343812538738768,-0.9145538276092515,0.0010974784195248116,0.0949246879531482,0.45399417399021713,0.8223589120399516,4.155853855230228,0.7270701527306409,0.43466241097852665,0.3900780429861851,0.394032678604083,1.344308030680669,1.4554639090525407,1.5686773025664442,0.8021014063021725
1,98.78630990943572,79.125,16.371517820430725,7.650615327777042,7.729707700074086,0.2069070182676869,0.0966902411093465,77.0,14.825999999999999,0.19254545454545452,19.5,64.4,87.0,0.0,2.083333333333333,60.0,119.0,3.4285714285714284,0.0,5.465728731312258,22.544313439427114,0.24244378725472293,387.11050784781014,4.124667459304093,3.294805070064997,371.9511841438278,0.375,0.3488372093023256,0.7333333333333333,0.14285714285714285,46.99453551912568,45.57087647517083,48.283364512526866,72.09302325581395,0.8142493638676843,0.18575063613231552,4.934351637951689,2.3567663919207087,0.3019512898423535,0.6980487101576466,12.388121565731135,18.835618188097815,0.3304171007449602,0.6695828992550398,9.429034468446103,13.42264616895432,1.7249884256414563,1.3829853204645062,1.9429774632353294,1.8694377780284768,-0.44022528690505425,-0.28732752166538056,-0.553174595650916,0.0010081382404846307,0.09632794398628267,0.31302228398309007,0.28116739143058755,4.902569011092751,0.5311207987447304,0.2907922378086875,0.35597660104570417,0.3532196633102733,1.175251025096546,1.234379095423992,1.5327859957955632,0.6981203125901446
1,125.21399189706179,62.41935483870968,12.328227488960703,5.892479229951501,5.939080534529602,0.1975064869032464,0.09440147603539872,58.0,2.9652,0.05112413793103448,6.0,56.0,64.0,0.0,1.6129032258064515,54.0,103.0,1.3777777777777778,0.0,4.1995641199789056,17.04528683474375,0.24637685248093627,224.88392008222795,4.05882285584185,3.0589285130665194,276.7351991569525,0.7096774193548387,0.7333333333333334,0.8787878787878788,0.5555555555555556,53.676470588235304,53.724256477270394,53.66367232384578,60.0,0.8050047214353163,0.19499527856468366,3.7693942926328803,1.8551729479125838,0.29771896568333883,0.7022810343166612,9.300527144194744,14.284327009655906,0.32677098294586787,0.6732290170541322,7.096060121406687,10.1853734537682,1.4032113213487276,0.8931971393649534,0.6721465427385169,1.1187451124209935,1.0,-1.1588760584504953,0.0,0.008566625713497223,0.2585704729925669,0.189998779613185,0.1819599585256863,3.7981745724654052,0.32067901966774054,0.29329261134861023,0.3426609203342003,0.3260729068497991,0.7426563225495881,1.4203380267427612,1.3680652324117997,0.5762125461664717
1,112.64812043640967,69.36363636363636,15.211306268162454,8.42834723045017,8.507406236129018,0.2192979933811101,0.12150959309954373,64.0,11.8608,0.185325,21.0,56.0,83.60000000000001,0.0,5.454545454545454,55.0,112.0,2.1153846153846154,0.0,6.015644639875551,20.82585610053176,0.28885461470762536,393.5817109671761,3.4619491920258434,3.3020050193080452,288.3922228019296,0.5272727272727272,0.4473684210526316,0.7058823529411765,0.3,49.54545454545453,49.46873787624106,49.563366196558405,65.78947368421053,0.49608967674661114,0.5039103232533888,4.2370780248514714,4.27034530882501,0.5158099097860445,0.4841900902139557,14.957110565087316,14.49141559212934,0.5142912001607426,0.48570879983925724,10.992451652041183,10.682625494708994,1.2631624553448193,0.9139683101113198,1.1394051879199898,1.0569961602251474,1.0,1.5986181539726205,-0.5901661762045175,0.002948210742456738,0.12902717829344265,0.3004493636880179,0.17301916413164153,4.538077160659136,0.6222636116775785,0.19985127323219432,0.20120546387879137,0.2003706590917794,0.7768942557625639,1.4993401639030675,1.6172272604960658,0.525578155774969
1,91.82984828657187,85.57777777777778,21.159017945170337,12.096205265213625,12.232939969442468,0.24724897624841993,0.14134750374827657,81.0,29.651999999999997,0.36607407407407405,41.0,60.0,105.4,2.2222222222222223,6.666666666666667,58.0,127.0,3.75,0.0,8.649994806240725,28.661194308622537,0.3018016176540986,778.8610805732053,3.3134348575497756,3.598430112794,379.86800112478863,0.4222222222222222,0.4054054054054054,0.6666666666666666,0.2222222222222222,52.02702702702703,52.42680447186573,51.88042005820108,54.054054054054056,0.7331469400434918,0.2668530599565082,7.408354805908836,4.469535119679283,0.5599056316830943,0.4400943683169059,21.446266644090777,19.013724154598872,0.5743746376841893,0.42562536231581055,16.044096638634304,13.811199267500688,1.2964266394311807,0.7260814127350423,1.5367465861626832,1.2726047602173423,0.8638144071562266,0.7361483887696876,-0.8637909211177262,0.002646698488801709,0.09614510713237939,0.2702533656231476,0.30147539458411693,4.578088307912703,0.7659555223248492,0.2269027995386081,0.21851038668390455,0.2180050632629325,0.879406911355439,1.4996613878344764,1.6463572323881404,0.7322470795106233
1,99.51829972737737,78.58333333333333,15.220134108131358,9.13375782002641,9.229472560080575,0.1936814520652983,0.11623021616152379,79.5,18.5325,0.2331132075471698,24.5,63.0,89.6,0.0,6.25,58.0,114.0,5.333333333333333,0.0,6.526222634008138,20.69528049091374,0.3153483537888494,424.30981197663493,3.1710963066247015,3.3346531847122356,262.50691011719516,0.5416666666666666,0.5,0.7368421052631579,0.16666666666666666,52.208835341365464,52.33898020820354,52.05368620221672,55.26315789473685,0.6319816373374139,0.3680183626625861,5.189873082137525,3.9604018241455816,0.5319672996761013,0.4680327003238985,15.09432808152271,14.15824474873032,0.5410189859244781,0.45898101407552205,11.286574388213209,10.39568845660655,1.2469059726218865,1.1209758326416752,1.6776126543907188,1.6975322896557103,0.7542466579597029,-0.025574401232828947,-0.48223009391910865,0.004374099401218274,0.21870791884970597,0.4056134873139916,0.4131871542020745,4.7303885422075345,0.767989525038636,0.3546642637156669,0.3611104583055322,0.33542912179711215,1.3580638986875415,1.6242187371070416,1.7813738449195209,0.6981203125901446
1,123.49134510155615,62.67213114754098,14.181820888582926,6.00416522091123,6.0508905820679155,0.22628592053454316,0.09580279321882947,58.0,5.9304,0.10224827586206896,7.0,53.0,64.0,0.0,1.639344262295082,52.0,109.0,2.033333333333333,0.0,4.278625762798038,18.29304381390372,0.23389359399806647,245.88959356722432,4.2754484332233,3.097710259066654,312.84386205215935,0.5409836065573771,0.5405405405405405,0.9,0.6,44.961240310077514,45.64717989225899,44.092349908104396,64.86486486486487,0.7628294036061027,0.2371705963938974,3.7393917750695267,2.085055785133492,0.3125656211322521,0.6874343788677479,10.22719599402438,15.167066759173075,0.3359490773439019,0.6640509226560983,7.699954179982045,10.825603255808229,1.028994902389546,0.9753222420908783,0.35259359512906485,0.840254716174504,1.0,-1.6334793763764361,0.0,0.008041978564787963,0.2570972152837648,0.11588366534429029,0.18505007144715857,4.148031298477573,0.2680963985118168,0.3022681007390531,0.3562446280160492,0.3527954427646154,0.854258018016978,1.3335533013495013,1.2491961394861935,0.38890080902051716
1,105.47365769053204,73.32692307692308,15.762602992272756,4.354398272290385,4.369771385414151,0.21496337676322666,0.059383349110700236,71.0,17.049899999999997,0.24013943661971826,23.25,59.0,85.80000000000001,0.0,0.0,54.0,112.0,2.888888888888889,0.0,3.0898949788612806,21.816165979365294,0.14163327239918516,211.773698033127,7.060487857553401,3.0328421303772903,616.1310999827131,0.4807692307692308,0.47727272727272724,0.9047619047619048,0.3333333333333333,42.03821656050955,43.28950748156118,40.77648670499817,68.18181818181817,0.5811789038262668,0.41882109617373314,2.3706539182259396,2.0124611797498106,0.4241593932532062,0.5758406067467936,14.208327980665123,16.555014769944005,0.4272861054855323,0.5727138945144674,10.185690551115115,11.79233891204506,1.8053779222022257,0.1851262078680762,1.826699794082968,1.73413669014893,1.0810041713826646,0.07588861564207461,-1.0,0.00024075577041973047,0.008109084132325426,0.2928765904791173,0.28271928310965183,4.8327586512417895,0.5107553516763699,0.1810702036823126,0.16889682847306262,0.17114013827564503,1.1830297250389394,1.3810402040321663,1.400519336663181,0.6577430444008953
1,119.7510822089993,64.56896551724138,16.285944934815504,6.17010335720533,6.188507012811657,0.2522255824350599,0.0955583430488409,59.0,5.9304,0.10051525423728813,8.75,55.0,64.0,0.0,1.7241379310344827,53.0,111.0,1.7575757575757576,0.0,4.375935274179627,21.916286673473785,0.19966590779614174,301.29209332226685,5.008366280642146,3.1859578447829557,439.0591646892517,0.6551724137931034,0.6590909090909092,0.8620689655172413,0.4,65.5737704918033,61.07088719169265,70.51330406480275,61.36363636363637,0.9576036866359449,0.042396313364055284,4.307385683749649,0.9063269671749656,0.6327661384020717,0.36723386159792815,17.433660636652007,13.28123105588992,0.6453611851473681,0.3546388148526318,12.698151334397483,9.41309000624565,1.6283764714642452,0.7930310876491822,1.2459408295892755,1.4380634582768224,1.0,1.2070988830514633,-0.2577363212114867,0.002990846032423397,0.12565874089367782,0.19614632373482532,0.1712960867822468,4.007977116745713,0.2868874532909064,0.20867716918839105,0.21753777253165363,0.2166553286246952,0.8893759765572641,1.2185150062263626,1.4054885079463668,0.4039986893191429
1,106.30917014112958,73.0,10.884003788199381,2.4139020437712624,2.3037611060580527,0.14909594230410111,0.03306715128453784,69.0,5.9304,0.08594782608695652,8.0,64.4,75.0,0.0,0.0,63.0,107.0,1.65625,0.0,1.6290051003274697,14.657187479062278,0.11114036049920871,75.01065532743812,8.997631423078925,2.582093069636424,527.5198825422789,0.6981132075471698,0.75,0.9666666666666667,0.36363636363636365,24.691358024691365,26.981986631808663,22.28459376978488,62.5,0.09900990099009901,0.900990099009901,0.5423261445466404,1.6359922335498094,0.2570152077458072,0.7429847922541928,7.4307055748782505,12.63399222161599,0.2548602001211478,0.7451397998788523,5.26827784895527,9.008169349098868,1.560929215874751,0.618970635905463,0.943302939011188,1.2527882569639195,1.0,-0.8616631427217571,0.0,0.00204914958593874,0.08508285675971729,0.19676225906729794,0.1619693279450559,4.071496870755257,0.33622077555384383,0.15851508147051,0.1835199117876143,0.15957370617561148,0.957685308169619,1.329309260763521,1.1826586073502081,0.4322958833632603
1,120.49341907359597,64.72881355932203,2.8456288831298133,1.3261299671054765,1.3359019420564064,0.043962321053851526,0.020487475270809928,64.0,2.9652,0.04633125,4.5,62.0,67.0,0.0,0.0,61.0,72.0,1.4047619047619047,0.0,0.9446253222283633,3.9275039600644357,0.2405154346968158,11.655370614806767,4.157737324677563,1.773496197634469,65.31811923031536,0.6779661016949152,0.7647058823529411,0.9615384615384616,0.45454545454545453,46.15384615384617,46.056805470056105,46.25403586971547,55.88235294117647,0.4901960784313726,0.5098039215686274,0.6622661785325218,0.6753816335059704,0.5357181496317492,0.4642818503682507,2.8746489177057346,2.6761317150422705,0.5332224257445358,0.4667775742554641,2.0859293961319523,1.9516430651033858,1.4958833764433683,0.33603490429863303,1.577510762126697,1.4177376828631796,0.9673675936547124,0.5966758885519718,-0.9754657246008221,4.915631906720127e-05,0.007963096562924456,0.47707590034610314,1.252762968495368,3.251974204770075,0.8158317811742538,0.626381484247684,0.0,0.0,1.6997931338939871,1.442821297687427,2.135997420584797,0.5982348863757805
1,120.20844896332287,64.96610169491525,3.22151229048652,1.0747894741730137,1.082920252577366,0.04958758808732186,0.01654385050253269,65.0,4.4478,0.0684276923076923,6.0,62.0,68.0,0.0,0.0,59.0,71.0,1.4390243902439024,0.0,0.7657402540817043,4.443178257829972,0.17234065564042625,10.688704924849688,5.802461388370326,1.735895197952258,103.1254811308198,0.6440677966101694,0.7567567567567568,0.9285714285714286,0.38461538461538464,46.80851063829787,46.55982506014442,47.0450672539084,51.35135135135135,0.4477611940298507,0.5522388059701493,0.512989176042577,0.5697029081098076,0.4525161030755333,0.5474838969244664,2.9888956741059802,3.287603333762081,0.4523786405400919,0.5476213594599081,2.1443711485452193,2.3593322237099548,1.4780187814100205,0.3546629439078368,1.595368650576707,1.4180371786227886,1.2346194823329766,0.1518992283658367,-1.0,0.00012111049063012195,0.012005649534996289,0.4820099052584377,1.1786549963416462,3.318232457054252,0.6865065519052878,0.5693168212524391,0.695766935212249,0.6412373393653842,1.7016114453323061,1.4034144097034675,1.6865666884874413,0.3988232575838537
1,112.6394744239253,69.36363636363636,4.490168834422171,2.329361699248514,2.3242560782453934,0.06473375777017547,0.03358188557239011,70.0,4.4478,0.06354,5.0,65.0,73.0,0.0,0.0,59.0,81.0,1.9642857142857142,0.0,1.6434972341413685,5.906400725636209,0.2782569809406792,30.495921357305303,3.593800222439656,2.191211868965525,84.90569696643662,0.6363636363636364,0.6,0.8333333333333334,0.4444444444444444,60.43956043956044,60.77941646690213,60.13481981860084,45.0,0.6791808873720137,0.32081911262798624,1.3701673221056023,0.9416965821485116,0.5757105403974224,0.4242894596025775,4.481516494137012,3.8472820853914325,0.5833070817154863,0.41669291828451377,3.313710049007618,2.8007473910908174,1.1515157033223629,1.1685985469126194,1.41026988057831,1.2660862831064836,0.3579754905904693,0.4593054618633028,-0.6233816333699477,0.0003380773349839909,0.08160598242679194,0.35283576096669167,2.2512917986064953,3.745174606578467,0.9288336946680513,1.0272191340057735,0.0,0.0,1.645862413688421,1.619669717710891,1.5526371219943145,0.42046252461997524
1,107.0083338794063,72.86792452830188,6.086042467586913,5.438466978563268,5.490290346098698,0.08352155639101667,0.0746345804929708,71.0,2.9652,0.04176338028169014,3.0,70.0,74.0,0.0,1.8867924528301887,66.0,100.0,1.5142857142857142,0.0,3.8822215344094264,7.7271533532209045,0.502412901225935,94.2431336557269,1.9903947481442166,2.681219828266067,61.52034180942344,0.5849056603773585,0.6578947368421053,0.8,0.2,47.499999999999986,47.17805090269883,47.87464283918669,52.63157894736842,0.6924577373211963,0.3075422626788037,3.2312809334052393,2.153428638697086,0.6499997085290237,0.3500002914709762,6.229828802648947,4.571447476880669,0.6585599883337055,0.34144001166629434,4.9624562154694445,3.5731909363928076,1.2100608393284635,0.9163187122700891,1.3750758772911296,0.9883803240458342,1.0,1.5147462433283412,-0.9220098837524504,0.0024878450981287333,0.11029347081310333,0.5209904158332197,0.546047058729354,3.341494289262317,0.6725356464339042,0.4649496221566874,0.43137432050582375,0.41442619437353345,1.0193335630565332,1.5863812152029109,1.789290178061751,0.7565177958857056
1,101.57252123546859,76.86,10.652220234221941,7.541720693608863,7.619624234133055,0.13859250890218502,0.09812282973729981,74.0,8.1543,0.11019324324324323,11.5,68.8,85.4,0.0,2.0,58.0,106.0,2.5,23.4375,5.387887966048837,14.231549100358622,0.37858759633644284,240.89101678664747,2.6413966270340272,3.0887907147225593,150.36466316462565,0.46,0.4,0.6875,0.3,49.25373134328358,48.93374864641499,49.5569567484273,72.5,0.6828130606386794,0.3171869393613203,4.452293416506449,3.0345235760055207,0.4233106608808686,0.5766893391191314,9.259377247057815,10.807447561408125,0.4558439609983994,0.5441560390016007,7.264949541118597,7.937545468402678,1.215033000038698,2.0884994003722817,1.8783651107697366,2.0562492970630704,-0.10567134569256886,-0.6996045393690316,-0.4148267956114207,0.0072970049949190865,0.5332751099310103,0.2529804731602967,0.3424903089467762,4.433269689515107,0.6874999541373773,0.2773743581548493,0.3606320180993208,0.36193426078643337,1.1575446706253205,1.5403496752268535,2.0262300076399318,0.9030169903639559
1,100.67926883050716,77.59183673469387,4.911374414505148,2.545420724883544,2.5722709838165176,0.06329756609961922,0.032805264471145096,77.0,4.4478,0.057763636363636364,6.0,72.6,81.0,0.0,0.0,70.0,89.0,1.8148148148148149,0.0,1.8188702557060519,6.724818408263042,0.27047128194140324,38.42661729567428,3.697250195370638,2.291602265061507,99.45334469513038,0.5714285714285714,0.5384615384615384,0.8095238095238095,0.3,50.54945054945055,50.572113219083704,50.52581539409168,53.84615384615385,0.5852090032154342,0.4147909967845659,1.391463335041911,1.171469344682956,0.5586775044475047,0.44132249555249525,5.026447533956111,4.467438618772507,0.5604862141797009,0.43951378582029915,3.6879089620257326,3.2657578169570316,1.7519809604386547,0.4448788336072278,1.8793649591646568,1.8492921842221395,0.8098655679854261,0.094616201424083,-0.5675976753011087,0.00014385968351985812,0.016983388782067184,0.1734208997509965,2.197224577336219,3.887583507725602,0.9500709511921107,0.0,0.0,0.0,1.7959462902239436,1.3926590340037708,1.814968423520746,0.8021014063021725
1,99.62795062397983,78.38775510204081,7.058730783370962,3.3819373146171707,3.417142329802442,0.09004889570038457,0.04314369393809981,77.0,5.9304,0.07701818181818182,8.0,73.0,83.0,0.0,0.0,69.0,99.0,1.5806451612903225,0.0,2.4162845136829043,9.755965169217175,0.2476725236070916,74.05735284262653,4.037589577705449,2.57653829422954,157.5623331507546,0.4489795918367347,0.4166666666666667,0.7333333333333333,0.1111111111111111,51.5151515151515,51.60464227692506,51.42819185853471,58.333333333333336,0.7231329690346082,0.27686703096539167,2.05509227416171,1.2716215146794838,0.4260966719991059,0.5739033280008944,6.368311703227794,7.390768730890627,0.4432698130096818,0.5567301869903183,4.731743769731579,5.30285223771634,1.695932891209934,0.5404904772561321,1.2424301702200458,1.434312935112395,1.0,1.2502241707669945,-0.1449840044056533,0.004008468026228326,0.11603913172514735,0.466482785101074,0.6505875661411494,3.875926997665455,0.6962241056433379,0.5508988754540912,0.6235394542595348,0.49357857699164837,1.1188027965433918,1.3211912256320097,1.5275965109901235,0.687515491116148
1,101.08677916580581,77.18367346938776,3.750963595018814,2.4664414311581235,2.4750528327336156,0.048597888988874106,0.03195548126037759,76.0,2.9652,0.039015789473684205,6.0,74.0,80.4,0.0,0.0,72.0,88.0,1.4411764705882353,0.0,1.7501266418209132,4.786857747228194,0.3656107480600014,26.319029466755893,2.7351493502480055,2.1272399802759034,52.37108342824331,0.5306122448979592,0.4871794871794871,0.7368421052631579,0.3333333333333333,58.75,58.42357619700632,59.09022577947278,51.28205128205128,0.7705479452054793,0.22945205479452052,1.54713186938819,0.8442546757032551,0.5054837924452871,0.4945162075547131,3.403330604728659,3.3662067505006044,0.5371278519755147,0.4628721480244853,2.6435086746934777,2.4539879629454835,1.7542676447300427,0.710721991560014,1.8708686122020048,1.9502431298650311,0.40301937587149794,-0.18416349357489992,-0.3883184724750088,0.00015124492706561116,0.031734784401649035,0.24916329432589546,2.3978952727983707,3.6181324171399583,1.0357038722349912,0.0,0.0,0.0,2.183128493113747,1.4664897213662285,1.8189753494735637,0.8021014063021725
1,102.12807337332747,76.16,5.754714127902232,2.7367491515240023,2.764417986253361,0.07556084726762384,0.03593420629627104,74.0,5.1891,0.07012297297297297,6.75,72.0,80.2,0.0,0.0,67.0,92.0,1.7857142857142858,0.0,1.9547387041138116,7.413073347983617,0.263688029560035,45.52362970395242,3.792360243536674,2.3652069920296577,112.4521785892575,0.52,0.5405405405405405,0.75,0.09090909090909091,51.578947368421055,51.35163072856859,51.8323210510324,54.054054054054056,0.5967302452316074,0.40326975476839244,1.5103807466993213,1.241638702145945,0.5287089714223189,0.4712910285776811,5.3902218121547465,5.089122250286019,0.5331331773174395,0.46686682268256047,3.958266109310287,3.704107986075926,1.5376337601956258,0.5673874301473942,1.655412795573937,1.6527763525408141,0.6288997396869753,0.06012894235192334,-0.5046466363071139,7.499562670482509e-05,0.019404414271938765,0.4006774797185071,0.4950772667978514,3.8852951740559742,0.7839608139787737,0.4811573142193443,0.42099799200935356,0.46843946497955163,1.219405271293942,1.3999509097043195,1.6022408209167092,0.5643856189774724
1,102.91731451866414,75.66666666666667,3.8918718718203804,1.9390719429665315,1.9583416557935764,0.05143443002405789,0.02562650144889689,76.0,4.4478,0.05852368421052632,5.5,72.0,79.0,0.0,0.0,69.0,85.0,1.3783783783783783,0.0,1.3847566646917295,5.307599480452342,0.26090074614554626,23.08986956762957,3.832875201675887,2.0703915895996805,81.37346571621441,0.6078431372549019,0.6388888888888888,0.782608695652174,0.3333333333333333,48.57142857142856,48.62857065430502,48.51567963279536,61.111111111111114,0.5851063829787234,0.4148936170212766,1.0594569267279519,0.8921425711997711,0.414159204845113,0.5858407951548873,3.4157163768888856,4.062449246150777,0.4250581947421254,0.5749418052578744,2.5287909509228688,2.94103827286368,1.647973092695172,0.25528168825796693,1.762214129703235,1.6960355142100556,0.9445344044344206,0.18016493913807752,-0.7592376129474072,9.261369445373359e-05,0.00607617775423688,0.23675249772287632,0.9808292530117262,3.7648917632431766,0.801277602453477,0.6475667913614567,0.0,0.0,1.7229205957083624,1.345285655158853,1.8208715059920462,0.6673441578789994
1,99.64286715993309,78.24489795918367,5.328893772964275,3.095695936834452,3.1273218324904826,0.06810531947711253,0.03956418907274078,77.0,5.9304,0.07701818181818182,6.0,73.0,81.4,0.0,0.0,70.0,91.0,1.8148148148148149,0.0,2.2113504747067605,7.244403562662933,0.3052494874945787,50.32804808334542,3.276008776321894,2.408780197063268,94.93091860200546,0.5306122448979592,0.46153846153846156,0.6666666666666666,0.3333333333333333,48.07692307692309,47.94143153132856,48.2146776872825,61.53846153846154,0.6173913043478263,0.38260869565217376,1.738181980042562,1.36833490985647,0.37579023716616833,0.6242097628338317,4.440944872027008,5.7235820621653035,0.39639682705233387,0.6036031729476661,3.3721853412978104,4.161233714168933,1.6900501307125069,0.8713719437363121,1.9346061057211017,1.7418314753041715,0.5953625940532987,0.45017522915604324,-0.7212311651788346,0.0006495118578440909,0.060129089463455604,0.4245970104231813,0.6768866596881647,4.123004049629477,0.9272089422772247,0.39829434789057994,0.5715454457684044,0.882133157034693,1.8857854225446353,1.4870979632286887,2.074746000198736,0.9166873214881973
1,97.74920644591072,79.95744680851064,7.6013655718490325,3.6742346141747673,3.706959116812567,0.09506763754042163,0.045952375430072925,77.0,7.412999999999999,0.09627272727272726,10.5,73.0,85.80000000000001,0.0,0.0,70.0,99.0,2.0434782608695654,0.0,2.621215929079461,10.482156451071234,0.25006456842299696,86.31838548924753,3.998967171984354,2.6430734186099056,167.67119815775152,0.48936170212765956,0.4594594594594595,0.6470588235294118,0.1,55.04587155963301,55.162075448397985,54.903326408354594,67.56756756756756,0.789049919484702,0.21095008051529793,2.333333333333333,1.206464071390257,0.29347467659049986,0.7065253234094999,5.678530382888585,8.810782970618758,0.32275707002544113,0.6772429299745588,4.341091553620657,6.288300728770097,1.5869099786409882,0.8755146449119868,1.8478728629669805,1.4474847024401751,0.9018962825541106,1.163690564071163,-0.957317490750889,0.001042638671397132,0.07950893952019215,0.4040266277060458,0.8007778447523108,4.325345500383651,0.6157276169563208,0.4292671441566165,0.47484753335510516,0.6025539392966028,1.475909147515421,1.3473791578022491,1.6249432215707376,0.7090964491503368
1,104.7383133680466,74.38461538461539,9.687578151292804,5.139237755337104,5.181868842983422,0.13023631434002736,0.06909006289491453,71.0,5.9304,0.08352676056338028,11.25,67.0,80.80000000000001,0.0,1.9230769230769231,64.0,102.0,2.08,0.0,3.664134598092867,13.250941512979072,0.2765188114749363,152.53448090197628,3.6163904895513417,2.890338138384097,191.68231546055432,0.36538461538461536,0.4,0.6428571428571429,0.09090909090909091,45.09803921568628,44.43466960425603,45.75817048866772,68.57142857142857,0.6867112100965107,0.3132887899034893,3.0413812651491097,2.0542638584174138,0.44199174886013426,0.5580082511398657,8.809551891936197,9.898446668224036,0.4594275659927575,0.5405724340072425,6.590076044201487,7.1484000462927195,1.4211309868589619,0.7807940888803153,0.6403368979786466,1.0307339424188042,0.9433143942092224,-0.2508365748457779,0.0,0.006992328949308402,0.19176358331204024,0.3253205119611855,0.34595098057575646,4.231139179796707,0.5961360799773474,0.2692926412919258,0.28507654828312917,0.28591171047531644,0.9606481570064109,1.4137487297183629,1.9733819043718739,0.6577430444008953
1,99.01068953801838,79.27083333333333,18.585901295077264,8.494052988427418,8.584563303076798,0.2344607784924333,0.10715231102352592,74.5,19.273799999999998,0.25870872483221474,33.0,61.4,99.80000000000001,0.0,4.166666666666666,57.0,117.0,4.0,0.0,6.070202925130792,25.736101123083433,0.23586334604841352,490.7901485302918,4.239743125643351,3.3978659466535293,436.4578312698204,0.4583333333333333,0.41025641025641024,0.6875,0.5,51.61290322580645,51.618788509080396,51.61027388831832,69.23076923076923,0.794455912710115,0.20554408728988502,5.411340748433069,2.7524692471527703,0.37607956517350194,0.6239204348264978,15.782748003079396,20.328594798678772,0.39813431778899594,0.6018656822110041,11.797833343973775,14.505651544232533,1.480491919748981,1.428831261342372,2.1733316409840513,1.5701858125755803,1.0327197552287357,1.3559672695325036,-0.9221253024950069,0.005727085836289991,0.2997334148936597,0.3014015469884841,0.3615019846870481,4.829448698502607,0.46555921018852475,0.37850741492858103,0.30696370956360775,0.298349787582938,1.1408958835738674,1.2906223131020838,1.5775788110105453,0.5817669271584537
1,109.89467249225052,70.98148148148148,16.052379757438118,5.526949412770191,5.5398673832586365,0.22614884083007,0.0778646669161467,64.0,10.3782,0.162159375,26.5,58.0,87.4,0.0,1.8518518518518516,54.0,105.0,2.4545454545454546,0.0,3.917277793576356,22.128311991247838,0.1770256039017216,272.3218754273762,5.648900373502834,3.1420526392775514,500.00251948938865,0.5370370370370371,0.48837209302325585,0.8571428571428571,0.3333333333333333,60.60606060606061,59.3864378368452,61.64883767329318,62.7906976744186,0.7757875231624461,0.224212476837554,3.4751867686389284,1.8682571063385827,0.5898355526287359,0.4101644473712641,16.994710040867677,14.171874336474842,0.595565169655151,0.40443483034484906,12.265746867804092,10.107729884207899,1.7191869064757697,0.9686723405975735,2.3127221338615174,1.8801815745399508,1.023979148914811,0.6662741207171861,-0.9465292764060265,0.0038654647065269956,0.16937046699897576,0.2744089923927815,0.19343839690029396,4.752314067211292,0.41226142981078157,0.2812564177516748,0.27584979575796037,0.26321387006358926,1.0706191238534895,1.1550045990784197,1.6039870286459479,0.5328599539040249
1,105.67837311070923,73.42307692307692,18.459649853121515,5.5377492419453835,5.589345606931593,0.2514148225150128,0.07542246217421686,69.0,17.7912,0.25784347826086956,34.25,57.0,97.60000000000001,0.0,3.8461538461538463,53.0,106.0,2.888888888888889,0.0,3.9522641810565675,25.489221097492617,0.15505629481339284,316.48446975500013,6.449270577524635,3.2073225135246806,657.5475346723173,0.5192307692307693,0.47368421052631576,0.7222222222222222,0.3,46.621621621621614,47.200541203939444,45.91785426296412,68.42105263157895,0.5773657289002556,0.4226342710997443,3.0049958402633434,2.570992026436488,0.38775618882845675,0.6122438111715433,15.872156373445254,19.944298539025226,0.3922132956593068,0.6077867043406928,11.422682433279382,14.219441694626477,1.7022148356647029,0.9342154456694569,1.9074593054750597,1.553541954850762,0.664852759769305,1.0020606265293157,-0.8788391128244312,0.002199997052180883,0.09818696476825757,0.26419403670798314,0.18482468701207325,4.714204862080627,0.40142623334639943,0.12755305678982315,0.1523448629577476,0.15078239963573642,0.9379237717604938,1.2201021721334309,1.362446416117638,0.6577430444008953
1,129.50169206152637,59.640625,12.903016981397112,2.597312408246599,2.4770322331523627,0.21634610605433985,0.04354938279480805,55.0,1.4826,0.026956363636363636,3.0,54.0,58.0,0.0,0.0,52.0,105.0,2.1333333333333333,0.0,1.7515262892796928,17.33811082689146,0.10102174953012012,95.40437868213375,9.898858460195695,2.6865384175154587,686.5100201703403,0.609375,0.6590909090909092,0.9310344827586207,0.2727272727272727,18.07228915662651,21.822106274565687,14.22309804917993,68.18181818181817,0.039999999999999994,0.96,0.37026581558867727,1.8139246347754256,0.15139493007018762,0.8486050699298122,6.746172478276644,15.971826568646232,0.15013917335821592,0.8498608266417841,4.777443870986387,11.3663883120268,1.9017669660720913,1.750081393106881,0.16396644426792228,1.0390071408213628,1.024561742605424,-1.251643069207387,0.0,0.007177976574671799,0.4153004747605657,0.09441134255083816,0.08298598062668543,3.2574550251015904,0.2290264442160368,0.07488520840491247,0.09955905148606287,0.09613824542123925,0.44646966978326785,1.2572695862528207,1.1214070237752207,0.28125
1,115.82508603332383,67.6842105263158,13.545107043210477,5.9281411203561225,5.979076069874896,0.20012211028071464,0.08758528871443726,63.0,14.825999999999999,0.2353333333333333,22.0,54.2,80.0,0.0,1.7543859649122806,51.0,95.0,4.75,0.0,4.227845234238752,18.723951603130246,0.22579876961078807,248.69466198641248,4.428722095003934,3.1026365735802393,331.692712682269,0.6842105263157895,0.6363636363636364,0.8571428571428571,0.7777777777777778,53.333333333333336,53.905644268538644,52.85772928981114,50.0,0.7205284552845531,0.2794715447154471,3.590391216971918,2.2360679774997894,0.5935445811562449,0.4064554188437553,14.425277687574557,11.93724119186369,0.5997101091716524,0.40028989082834765,10.511411547802355,8.587715856755137,1.4489931087252559,0.8687738433829377,1.7592902953815654,1.557621055014014,1.1060402794078712,0.7740151526254389,-0.7321308841231536,0.005782381856247858,0.18907338187611517,0.309369273138671,0.2807134031356875,4.600629821927418,0.4957339337474246,0.35827708517581214,0.402752937180708,0.3827065118469224,0.9604111316910943,1.32518829218841,1.4500982550634633,0.40932561502910464
1,124.61143723348592,62.73770491803279,16.924244581215692,6.099180272790763,6.137409600977395,0.26976193348684535,0.09721714048608218,55.0,2.9652,0.05391272727272727,5.0,53.0,83.0,0.0,1.639344262295082,51.0,101.0,2.1785714285714284,0.0,4.339803947770538,23.58856373294166,0.18397915180015642,321.60402944993467,5.435398468877764,3.214291591446503,512.8529727882267,0.5901639344262295,0.6944444444444444,0.84,0.23076923076923078,60.169491525423716,59.91248754106787,60.030648495629535,58.333333333333336,0.8741039426523298,0.1258960573476703,4.066189654342839,1.5431642596312907,0.44834230919192897,0.551657690808071,15.794517392469354,17.52009016306805,0.46234003440880483,0.5376599655911951,11.532577291440575,12.43653720402583,1.3569134240155567,0.8280850447482533,1.574781177465396,1.2200367516349415,1.0,1.141084018512169,-0.9283912963774156,0.0027045488367448377,0.10957738530483374,0.1934262550563406,0.11545861156482821,3.7598785771109156,0.2835640401411019,0.16396558118851703,0.17717727224172503,0.17673105292521316,0.6619239229779176,1.2696413135481983,1.3374399871925664,0.29167560676538784
1,118.95822840690899,65.24137931034483,14.528025360355873,4.626392630541622,4.6669799393597104,0.22268114981517986,0.07091193778314325,57.0,4.4478,0.07803157894736842,19.5,55.0,82.2,0.0,1.7241379310344827,52.0,101.0,1.9333333333333333,0.0,3.3000531627828336,20.23869157311012,0.1630566457748389,209.8230719037888,6.132838040719154,3.0288233509670346,496.4824702958077,0.603448275862069,0.6499999999999999,0.9230769230769231,0.375,48.50746268656716,48.50753450500383,48.50868961143811,62.5,0.6122950819672132,0.38770491803278695,2.582565169970132,2.0550460544022573,0.5428761751777984,0.45712382482220143,14.911894529129224,13.683568180251985,0.5446744504254224,0.4553255495745773,10.701267245168138,9.784253993772824,1.6569492914339412,0.3699453549971605,1.2988711694665467,1.483843846965127,1.023734466059532,-0.07044458068034887,0.0,0.0008176396274361177,0.03034755443807212,0.12851425742223688,0.10900554983515998,4.195247169304343,0.4189839865940815,0.10766736189365934,0.12014816894356233,0.11888670308734535,0.639466434084068,1.3138587942859437,1.5675610068926311,0.4039986893191429
1,113.67660254082205,68.66071428571429,10.991363197304734,4.669047011971501,4.711187344532819,0.1600822728346073,0.0680017250118086,65.0,10.3782,0.15966461538461538,18.25,59.0,79.0,0.0,1.7857142857142856,56.0,96.0,2.6666666666666665,0.0,3.3313125187593995,15.289110580962594,0.217887921021869,160.01012751972496,4.589515542257305,2.9111175812848242,280.6784425544738,0.5714285714285714,0.5813953488372093,0.84,0.25,47.78761061946901,47.163425924976735,48.42296264115379,60.46511627906976,0.748957464553795,0.2510425354462053,2.883542060524662,1.6694421334796354,0.5135287274654772,0.48647127253452266,10.956317109485827,10.663771272551305,0.5242030240380832,0.4757969759619167,8.01110789524229,7.632268823565098,1.5934369772715213,0.799075499353386,1.6439183721173762,1.514886203987202,1.0,0.9494376811360059,-0.6614768169398104,0.0037821269922726198,0.13316561445668046,0.3051877216621377,0.3213819908976226,4.423251796980337,0.3700744948455199,0.4962193651434697,0.45035964502121634,0.482072431899804,1.0718775355432206,1.2207719904741334,1.4946362658046808,0.41481106586125743
1,126.7009811927842,61.507936507936506,4.882070607361038,1.2572371141874243,1.260807326159099,0.07937301890677301,0.020440242114531028,63.0,5.9304,0.09413333333333333,8.5,56.0,67.0,0.0,0.0,53.0,69.0,1.96875,0.0,0.891525410096778,6.834679973761277,0.1304414271801159,19.14263782234373,7.666276133418733,1.988971892553829,209.58617584960422,0.6349206349206349,0.5777777777777777,0.8461538461538461,0.5714285714285714,43.5483870967742,43.15919956692672,43.946615688857,55.55555555555556,0.41836734693877553,0.5816326530612246,0.5797116298389154,0.6835298930947339,0.44541857992063855,0.5545814200793616,4.561444010853479,5.089801457776364,0.4449612682794082,0.5550387317205915,3.2513717903310875,3.6313421757207416,1.8154969538415056,1.1694617702566952,0.6460351835848104,1.2307660687131579,1.0011193168444952,-1.4661048240437258,0.0,0.001948716464025253,0.15204441833433105,0.2581563471342778,1.0986122886681098,3.9071269008822735,0.6042737865114555,0.47176741225809493,0.5296756383913243,0.5689366502767853,1.7329443944770697,1.3308196650407391,1.8783398054142362,0.47438729551586645
1,134.33399068418612,58.166666666666664,9.147649270686276,4.891122255993702,4.928576405476067,0.15726617657340303,0.08408806170762811,55.5,5.1891,0.09349729729729729,8.5,52.0,62.0,0.0,1.5151515151515151,50.0,93.0,2.2,0.0,3.4850297979081457,12.546097692417842,0.27777798988559627,137.36150274734803,3.5999972510847718,2.844835143361819,180.66366881818092,0.5,0.46511627906976744,0.7,0.35714285714285715,51.82481751824818,51.916563056578056,51.803424032960976,67.44186046511628,0.7324758842443729,0.26752411575562685,2.983024890945431,1.8027756377319943,0.31603504001614574,0.6839649599838542,7.05303897109683,10.375895555559607,0.3458729398179919,0.6541270601820081,5.414969816527634,7.446784829034662,1.5278794698587543,0.6727100013518901,1.3976479522053271,1.4219975924876265,1.0,1.016175894871421,-0.46380365947679403,0.0017342530482272764,0.08100050506985225,0.4040343758536422,0.3503613487818802,4.039262355303341,0.5022843402712995,0.4631415791961855,0.5631016776804647,0.573781245504902,0.9946709470921735,1.4666250437039656,1.418274525863184,0.45790864540594345
1,126.53290602862246,61.88709677419355,13.128750628770755,5.450221833355674,5.463140272713512,0.21214035417872992,0.08806717583217404,56.5,5.1891,0.0918424778761062,11.5,53.0,69.0,0.0,3.225806451612903,49.0,92.0,2.3846153846153846,0.0,3.863023533409049,17.877436400122843,0.21608375199603588,216.96139682831782,4.627835229454666,3.0433525782073785,330.9353199392948,0.4838709677419355,0.45454545454545453,0.65,0.18181818181818182,61.68831168831169,60.469146326614364,62.927656714784206,56.81818181818182,0.8338852097130243,0.16611479028697573,3.548473850356892,1.5837718690939466,0.5960533242287459,0.403946675771254,13.802183558571533,11.362326401575286,0.6067830289036178,0.39321697109638215,10.077001976063343,8.112052594419865,1.630213273580111,0.5449163253124203,1.262175370317542,1.5346335329737522,1.0,-0.9283891760976752,0.0,0.002796104173476311,0.09648206928296904,0.3030128740467628,0.28415473193381247,4.336135424019107,0.4542484839159014,0.41148951127971806,0.4876410763559136,0.4749710677297809,0.997649445937903,1.2399717327456212,1.5469299605836837,0.5762125461664717
1,131.80404724413447,58.76923076923077,4.003003679930667,1.375,1.3850641782162219,0.06811393696217104,0.023396596858638746,58.0,4.4478,0.07668620689655173,7.0,55.0,63.0,0.0,0.0,52.0,67.0,1.6666666666666667,0.0,0.9793882727952631,5.550085352554041,0.17646364165274822,17.076719081749314,5.66688973793161,1.9393745441389396,125.80688691613217,0.7076923076923077,0.7111111111111111,0.875,0.45454545454545453,52.23880597014926,52.09590184770357,52.38236412515099,48.888888888888886,0.4876033057851239,0.512396694214876,0.6842908506285672,0.7014723744122016,0.5281437639141061,0.4718562360858941,4.0334412927752386,3.8124531155635912,0.5269180997040717,0.4730819002959285,2.8928275640381984,2.7410638674093337,1.6126801050916775,0.09367039876470429,1.6706803362616842,1.623845136879332,1.1237445622077606,0.12715348069744348,-1.0,1.6740102229725955e-05,0.0011424145917252125,0.2796576547381906,1.0986122886681098,3.8508071924012124,0.6960537591675449,1.0593512767826485,0.5852664033905275,0.5878438142908695,1.8635981808505955,1.4410865095872742,1.8428430202234394,0.6485626875569105
1,128.40207801820478,60.666666666666664,1.6848470783484637,0.9069623173877128,0.9107443739317495,0.02777220458816149,0.014949928308588673,61.0,1.4826,0.024304918032786883,3.0,59.0,62.0,0.0,0.0,57.0,64.0,1.1454545454545455,0.0,0.6439935227346367,2.263714884140448,0.2844852623651704,4.579869447921262,3.5151205784304635,1.367823208302888,31.82892309176569,0.7777777777777778,0.9166666666666667,0.9696969696969697,0.8571428571428571,43.902439024390254,44.018790003533304,43.78398728023903,55.55555555555556,0.431372549019608,0.5686274509803922,0.42465029006520055,0.4875499133758377,0.46048489044941254,0.5395151095505876,1.5361351211247483,1.6627368902884365,0.4582891214538483,0.541710878546152,1.1269514140382015,1.2252344437614475,1.5713030322861388,0.6251137934527784,0.9540292758156061,1.2665861725419953,1.0156800739644916,-0.8920745169359487,0.0,0.00023677830115378246,0.03139209891980035,0.7029579921396762,1.2150226405125206,2.7155505106691193,0.9124101508439806,0.6646018937920503,0.8982349850680263,1.0146290378742318,1.9613370060249158,1.45994384790281,1.7491767511912433,0.7590196728253863
1,118.07424723146504,66.20689655172414,4.359939725519533,1.5727950313140984,1.5747856599190624,0.06585325627086794,0.02375575828547336,65.0,2.9652,0.04561846153846154,6.75,63.0,70.0,0.0,0.0,59.0,76.0,1.5263157894736843,0.0,1.1135416190441012,6.02095338789864,0.18494440121097433,21.063066133857127,5.407030401851719,2.030491701316951,130.2219120660002,0.6206896551724138,0.5714285714285714,0.8333333333333334,0.4444444444444444,58.20895522388059,58.608672197279,57.815295809064814,47.61904761904761,0.6737588652482269,0.32624113475177297,0.920985497016259,0.6408699444616557,0.5718236435483607,0.4281763564516394,4.552986046003316,3.9398220472690397,0.5752447685240436,0.4247552314759563,3.2846534231799245,2.8224911027195017,1.7968128402797738,1.1610492298411224,0.6357636104386515,1.2162882253592127,0.954698116624751,-1.4258922432272583,0.0,0.003165549571918208,0.1857713010012632,0.32384068331479865,1.6486586255873814,3.736678194443824,0.7681752518222159,0.869959174007489,0.7845719697294853,0.7368745579711936,1.5814665049755117,1.2923617515005925,1.5133604032326493,0.7069977063085001
1,114.0954332159094,68.33928571428571,2.784873332939845,1.348399724926484,1.3588468075778986,0.04075069418464367,0.019730960176609122,68.0,2.9652,0.043605882352941175,3.25,66.0,70.0,0.0,0.0,64.0,76.0,1.1428571428571428,0.0,0.9608497922320238,3.8283894337652806,0.2509801598963805,11.55637117061671,3.9843786871952718,1.7697915921441585,61.01501306471184,0.7857142857142857,0.8333333333333334,0.9333333333333333,0.6666666666666666,46.15384615384616,46.02996122055468,46.280149837280874,52.77777777777778,0.4999999999999999,0.4999999999999999,0.6804138174397716,0.6804138174397716,0.46107177912829184,0.5389282208717082,2.599563194689321,2.8104869423966923,0.46338492967706446,0.5366150703229355,1.9000910196812035,2.0447248979196777,1.437804976591337,0.46592890927238306,1.040048711456439,1.2048405219551455,0.9978230042656624,1.2704507768684725,-0.14631554896206525,0.0009156227257738834,0.04111317882271064,0.3980101538951648,0.9718605830289657,3.184090810177535,0.8706355157925606,0.6119523361544995,0.6293454524270309,0.5767154124403264,1.7817750838759254,1.5348786382928374,2.001665311917945,0.9333248981878292
1,106.64186922459915,73.28846153846153,10.377835617147293,6.693573154050641,6.720352465079637,0.14160258517230628,0.09133188244834253,68.0,5.9304,0.08721176470588235,12.25,66.0,81.80000000000001,0.0,3.8461538461538463,62.0,101.0,1.8571428571428572,0.0,4.752006800021542,13.405456892989656,0.3544830167263146,200.12831859108763,2.821009619121102,3.0082786565573416,151.26769137534842,0.4807692307692308,0.43243243243243246,0.8125,0.14285714285714285,62.091503267973856,61.075648160170026,63.20220478065251,70.27027027027027,0.92472647702407,0.07527352297592994,4.596737973824482,1.3114877048604,0.38059459322767764,0.6194054067723224,8.270141259224063,10.550404639741725,0.4419771081600688,0.5580228918399314,6.690487143979882,7.517680428905039,1.1558754010109797,1.9226044393147559,2.113571682442309,1.2032942434547453,1.0066878121925744,1.8908777501115344,-0.9734605935436205,0.007906446359631293,0.492045869892044,0.39913554376929383,0.4815888035809651,4.115393864533974,0.5441052732391346,0.538410166533905,0.5868106112817831,0.5787379110205919,1.1171545820459612,1.3464987463716687,1.5650268005616288,0.5481192036674126
1,110.57974441272891,70.2,4.261802783208411,2.621139136018989,2.6218055668695577,0.060709441356245175,0.037338164330754826,69.0,1.4826,0.02148695652173913,3.0,68.0,71.0,0.0,0.0,66.0,95.0,1.4864864864864864,0.0,1.8538964952861046,4.594397737031235,0.40351240824091955,26.758634375919538,2.478238536354857,2.134434055450095,45.54405409300942,0.5272727272727272,0.6,0.8095238095238095,0.4,35.38461538461538,37.37839922721062,33.180908973737814,54.285714285714285,0.11051212938005386,0.8894878706199459,0.6219264046735663,1.764428391057515,0.2294413407821231,0.7705586592178767,2.200718150367851,4.033029901783427,0.2125263561433776,0.7874736438566224,1.6170888704998068,3.1127590443085253,1.2063139690704476,0.4975878198491208,0.7087261492213268,0.9575200591458872,1.036223262317485,-0.225795780467964,0.0,0.0007749645272663516,0.04019802572784494,0.5586511171919804,1.4271163556401456,3.083684111406279,0.5732220650880382,0.707001242928436,0.9574340781960761,1.1405361263074276,1.2022059500579045,1.5947087615316018,1.2536513766118584,0.8409250492399505
1,104.9468993049319,74.27450980392157,8.258519071534675,3.9496835316262997,3.9889643686919385,0.1111891427265756,0.05317683741101934,72.0,5.9304,0.08236666666666666,8.0,68.0,76.0,0.0,1.9607843137254901,66.0,100.0,2.04,0.0,2.8206237550135853,11.434962498711519,0.24666663798253913,101.32807135915364,4.054054525487907,2.7126998864921426,185.43184586674374,0.45098039215686275,0.4,0.6428571428571429,0.2222222222222222,47.91666666666667,47.7511772499128,48.11653187363073,62.857142857142854,0.676923076923077,0.32307692307692304,2.3211538298959886,1.6035674514745464,0.5356483059577096,0.46435169404229015,8.369020131364463,7.792167181712357,0.5437542149956746,0.4562457850043254,6.141182828300443,5.625357675703104,1.508086266258893,1.168553299940563,1.3273522588939457,1.24275898015147,1.0,1.8575458061463355,-0.5723914593769737,0.004615986049721726,0.21318517608608253,0.40731385083704286,0.5288441292686692,3.9370627250299677,0.5322664560405889,0.6892232836541705,0.6949888199243762,0.8009183747141208,1.0487232277321146,1.3049875003816243,1.635326268632193,0.6673441578789994
1,107.3730642341077,72.66037735849056,2.780034561395672,1.4005493427717788,1.4120788991753361,0.03826066781458598,0.019275283086705862,73.0,2.9652,0.04061917808219178,4.0,70.4,75.6,0.0,0.0,68.0,79.0,1.2926829268292683,0.0,0.9984905651773152,3.7927055494218616,0.26326603849579605,11.897150770261621,3.7984390455891197,1.7824130753111893,57.625443389386135,0.6037735849056604,0.6363636363636364,0.8571428571428571,0.14285714285714285,53.84615384615387,53.751035428470004,53.93988272133148,48.484848484848484,0.6078431372549019,0.3921568627450981,0.779642954983178,0.6262242910851494,0.503923988353054,0.496076011646946,2.6923507861235474,2.6713035449149722,0.5106787330316742,0.48932126696832595,1.981993427435493,1.9401056017418736,1.466393269366698,0.6410295110614515,1.5456793984016999,1.3734962496392025,0.9828958990546335,1.0652526505307112,-0.7686040904378758,0.0002087967389760875,0.030833818777657156,0.4048457803139347,1.6094379124341003,3.266736907181769,0.9682843664118685,0.6770125502755524,0.0,0.0,1.978130206011766,1.4617178767224293,2.2052311074341606,0.7565177958857056
1,104.68782340373232,74.50980392156863,4.601619493263683,2.08806130178211,2.107711787600913,0.06175857740959153,0.02802398062918095,73.0,2.9652,0.04061917808219178,5.5,71.0,78.0,0.0,0.0,67.0,86.0,1.5454545454545454,0.0,1.4903772977994258,6.369314191128125,0.2339933708836951,29.822137750154702,4.273625343416432,2.1815088818694846,108.88025018954833,0.49019607843137253,0.42857142857142855,0.6666666666666666,0.2222222222222222,52.500000000000014,52.41866899701025,52.57566953925094,54.761904761904766,0.6605504587155963,0.3394495412844036,1.212183053462653,0.8689660757568884,0.49507686735350936,0.5049231326464906,4.48155767380868,4.525903675690928,0.5036786783922474,0.49632132160775244,3.2828148698011828,3.258750229953883,1.629341782848426,0.7436294109387207,1.8535873738282742,1.519521889011108,0.9983057318824389,1.1469758620028103,-0.949236514725068,0.00045927567174864964,0.04950532502709708,0.1554859100259378,1.5040773967762742,3.8538945893400425,0.8030568033665006,0.8993162824811503,0.5493061443340549,0.6506724213610959,1.7968334879062038,1.3992601749699354,2.029171617871241,0.8897922105053325
1,110.58655217820278,70.4074074074074,2.8451781024500167,2.074099031496045,2.090825907464933,0.04041020976651786,0.029458534376850715,70.0,2.9652,0.042359999999999995,4.0,68.0,73.4,0.0,0.0,66.0,76.0,1.8,0.0,1.478437177448971,3.7233815802133785,0.3970684029017099,17.293794484402905,2.518457758643514,1.9448604035732868,37.50871691631492,0.7037037037037037,0.6571428571428571,0.8695652173913043,0.4444444444444444,45.71428571428572,45.78807552214853,45.64237864769076,51.42857142857142,0.4210526315789474,0.5789473684210527,0.9607689228305228,1.126601424298216,0.5314450594165797,0.4685549405834202,2.7143555387300498,2.5486946465274687,0.5163718153714957,0.4836281846285044,2.036025897884335,1.9704155869344604,1.151298572192402,0.870163229106971,1.4525215943016443,1.1649483448172477,0.9818971336045701,0.893859151047613,-0.8304819600105678,0.0008520937006372098,0.07923908336989895,0.30464263519467627,1.1451323043030026,3.304948847191294,1.1414584449941914,0.8061434614957096,0.6886425541842758,0.8355892204098055,2.0662526478979504,1.5793834064042,2.068915034658511,0.9591479170272448
1,109.17838880357583,71.46296296296296,3.516607300262961,1.7429101666628157,1.7586609234959538,0.049208809073386865,0.02438899948167713,70.0,1.4826,0.021179999999999997,4.0,69.0,74.0,0.0,0.0,67.0,81.0,1.8,0.0,1.2435610648117847,4.839739344538807,0.25694794208597765,18.907711239704025,3.891838914457579,1.983609071058251,75.34194366763019,0.5925925925925926,0.5714285714285714,0.8,0.36363636363636365,52.459016393442624,52.55772719262294,52.361146281786844,54.285714285714285,0.6583850931677018,0.3416149068322981,1.0095695960312836,0.7272180923534244,0.42980295566502463,0.5701970443349753,3.1729020930857117,3.6545545871924294,0.443973815941471,0.5560261840585292,2.354414838291933,2.634825932069838,1.5270792060521585,0.9792735521582139,0.5478056538939446,1.0374424299730516,0.8690866073412209,-1.1429086347138508,0.0,0.005865823154779457,0.24564548406311376,0.3899467519954585,1.3609765531356006,3.276103755909976,0.8495912737286336,0.7991161877505526,0.7926604457997461,0.8028164724145005,1.5037050196874029,1.3960159525790494,1.637660984201467,0.7460039354656347
1,105.41283070173044,74.0,13.86065103300792,5.87950911649777,5.935337841615897,0.18730609504064757,0.07945282589861852,69.0,5.9304,0.08594782608695652,8.75,65.0,81.20000000000002,0.0,1.9230769230769231,60.0,113.0,2.1666666666666665,0.0,4.196917636439727,19.28099745202768,0.21767118878999484,254.22005965545512,4.59408526024444,3.1121799262582797,354.31418478868386,0.38461538461538464,0.3333333333333333,0.6,0.2857142857142857,47.20496894409937,46.446124579856125,47.93045299981978,68.88888888888889,0.7249007373794666,0.2750992626205332,3.574912586343895,2.202271554554524,0.4937247269632974,0.5062752730367027,13.547898566034347,13.719012617150785,0.5041915234928586,0.49580847650714155,9.907713044783733,9.825001455204534,1.72900370587572,1.4353718476053148,2.396701982066032,1.7128297541125597,0.9239372512278106,1.5589447342155678,-0.9764425532620011,0.0038791006072230907,0.24936025807268958,0.28452694065442774,0.2657031657330056,4.5218971697729335,0.44572671134625313,0.36860221913138647,0.4950431719931172,0.4993641782628537,1.0321097899135068,1.1775020469552457,1.533477322232071,0.5481192036674126
1,122.43222398773939,63.71666666666667,5.17520708393219,1.7173096815580122,1.7307005436274783,0.08122218808159336,0.02695228378066459,62.0,2.2239,0.03586935483870968,3.0,60.0,65.4,0.0,0.0,58.0,80.0,1.7142857142857142,0.0,1.2237900906022339,7.236487034038324,0.16911383725914,27.82175957272741,5.913176687414758,2.151354703215254,171.16250571381832,0.55,0.5714285714285714,0.875,0.18181818181818182,47.142857142857146,46.84221154017047,47.438773447949856,59.523809523809526,0.5804597701149425,0.41954022988505746,0.9331075260506764,0.7932908324363682,0.41591518225973756,0.5840848177402623,4.66691805392825,5.530517197489159,0.4204971721988733,0.5795028278011268,3.3653241877458,3.9506917632581087,1.8468751678659934,0.4360597098669541,1.4108154579990393,1.6288453129325164,1.0395659044337744,-0.06911699734514154,0.0,0.0010614245134672278,0.04157402225953778,0.40684858313134886,0.4511873574462594,3.45211897523804,0.6419415072810969,0.7055180260420587,0.5727933544879331,0.5515582599841651,1.259318785686908,1.271544738873081,1.4994177069962482,0.49224088296737656
1,109.01636617102206,71.84905660377359,12.040630296585062,6.769558558497229,6.823430266612113,0.16758230192200846,0.0942191711135381,69.0,10.3782,0.1504086956521739,16.0,62.0,79.0,0.0,1.8867924528301887,57.0,106.0,2.9444444444444446,0.0,4.824893812474957,16.355559799344213,0.2950002244905377,247.91513773422528,3.389827928866798,3.1012731556232254,221.77013360027226,0.4528301886792453,0.38095238095238093,0.625,0.18181818181818182,56.06936416184971,56.57764695739728,55.61319768722039,61.904761904761905,0.7792698279479646,0.22073017205203532,4.2668351682413475,2.270872683595018,0.31569011619922815,0.6843098838007718,9.189585138955136,13.529813794868701,0.35292531856139653,0.6470746814386034,7.164298897276909,9.70084336717477,1.3800595074705497,1.5430385005446694,1.9827431456580429,1.785273883266543,0.7145079403021422,0.43417803640251984,-0.6279742937857975,0.004358745038631872,0.3083161475808563,0.4065012597525266,0.518344456180018,4.463098521739474,0.5767401434993682,0.3824863419646245,0.5922162404812149,0.6931417210016231,1.3450296473580452,1.4583550824052325,1.480336091167715,0.7565177958857056
1,108.60332518187536,71.52830188679245,6.820793360083408,2.405922180466679,2.41187046819568,0.09535796573052509,0.03363594712865576,72.0,7.412999999999999,0.10295833333333332,9.0,64.4,78.0,0.0,0.0,58.0,83.0,2.12,15.625,1.7054499634047384,9.469517261423848,0.1800989339078838,50.73605491986204,5.552503717270617,2.412286804752423,210.31811917925677,0.4528301886792453,0.45238095238095233,0.7368421052631579,0.1,42.10526315789473,41.85471114072036,42.379952728770455,61.904761904761905,0.45182724252491707,0.5481727574750829,1.1547005383792515,1.2718675476729204,0.42916304048796644,0.5708369595120334,6.203531570853356,7.154575683702696,0.42988512685227953,0.5701148731477207,4.461901908598374,5.1383655121377565,1.6737714631962701,1.3402156359218669,1.8967134601694908,1.971826924053052,-0.011300381890999134,-0.028521450839516405,-0.4439541952277744,0.00041834828665951625,0.10423976178441478,0.5577444257491826,1.1420974006078488,4.411421633604381,0.7152772119484394,0.0,0.0,0.0,1.6920904732230695,1.4340670620485185,1.65109907805251,0.7565177958857056
1,110.93615984068204,70.18181818181819,13.703326048122214,6.791879683094336,6.852570457340531,0.1952546457633994,0.09677548771248407,66.0,4.4478,0.06739090909090908,5.5,61.0,70.4,0.0,1.8181818181818181,59.0,111.0,1.8333333333333333,0.0,4.845499038944091,17.608647461085845,0.2751772417303703,268.04911833788236,3.6340214536340185,3.1351844930522255,255.96081057225658,0.6363636363636364,0.641025641025641,0.88,0.3,53.90070921985816,52.15128056834894,55.93490305905925,61.53846153846154,0.8920112404656765,0.10798875953432355,4.57845652495941,1.5930272593576682,0.401504471748791,0.598495528251209,11.157610380006712,13.622488613200286,0.43606123741242314,0.5639387625875768,8.528028305035606,9.69819395211882,0.7569868282311338,1.5438541676302115,1.5936315716547904,0.8478558532941491,1.0034871144469042,1.3619266576467557,-0.9830609872339132,0.006985463611027209,0.3629863074833777,0.24239974612304316,0.2997449449010561,4.045288014336223,0.39336625641258605,0.2601255320905688,0.3769599954885952,0.37046097422049057,0.942297899129237,1.4100516673223211,1.4485400239155657,0.42046252461997524
1,96.49970281378273,80.17021276595744,14.824068485928068,6.281442647921768,6.266273499846557,0.18490743599751042,0.078351328145521,79.0,14.825999999999999,0.18767088607594934,19.5,66.0,90.0,0.0,4.25531914893617,59.0,118.0,4.2727272727272725,31.25,4.430924484511061,20.10759103899083,0.22036078195140388,279.90088063980676,4.538012577122411,3.153974374831694,364.9940041222971,0.44680851063829785,0.42857142857142855,0.6666666666666666,0.08333333333333333,36.41618497109826,35.26263172528394,37.472595779395625,69.04761904761905,0.5030303030303029,0.4969696969696969,3.1850344494910012,3.165789352155671,0.36751796382727336,0.6324820361727265,12.18987717083456,15.991313640575957,0.37395600577102467,0.6260439942289752,8.908915475086685,11.5270190026193,1.2166675196767505,2.046007338418413,1.6855872132073275,1.6312326968263091,-0.038926512737251784,0.34947386834423666,-0.5265661395051667,0.0015207718366391394,0.2978727473638486,0.41148229331491226,0.5877866649021192,4.884168106904723,0.6178888450659898,0.2746530721670275,0.3709165998790366,0.3587711313223307,1.4122237346838857,1.6325225800109262,1.5159949841476097,0.8272791906753929
1,108.08281207701694,72.49056603773585,17.137029903230285,5.8539927202919175,5.911106196862668,0.23640358794149016,0.0807552353397896,64.0,7.412999999999999,0.11582812499999999,18.0,59.4,92.6,0.0,1.8867924528301887,57.0,109.0,2.3043478260869565,0.0,4.1797832761154154,23.91256382947977,0.17479444303510924,314.00009463039936,5.721005671782939,3.2038998889186177,547.2156531813014,0.5471698113207547,0.5,0.7619047619047619,0.3333333333333333,49.999999999999986,49.722359186095325,50.242326157681994,69.04761904761905,0.7592592592592591,0.24074074074074067,3.6420743927537975,2.050824798207096,0.45576010769338315,0.5442398923066167,16.143373571469272,17.640923973276784,0.4647580323391414,0.5352419676608585,11.70199162857258,12.55802693467156,1.695931315175225,0.7041180344164877,1.344553351272785,1.5872813959038123,1.0,1.0158594642055494,-0.15527364338540278,0.004963496995853804,0.15792984940140495,0.2426990876704811,0.19728004072429028,4.376057426417074,0.4643780057076963,0.20929649473669412,0.2377779944945889,0.21937473023891627,0.8701528339303642,1.1419415012419178,1.4159628080482454,0.6484438250448905
1,120.22748727511039,65.08474576271186,14.351844931976181,6.071414082857242,6.124341761240097,0.22051011744442572,0.09328474762723367,59.0,2.9652,0.050257627118644066,5.5,56.6,69.20000000000002,0.0,1.694915254237288,53.0,102.0,1.4047619047619047,0.0,4.330563589676836,19.93596827886649,0.21722363965975677,271.2261921502581,4.603550523167399,3.1403017367389148,367.10494880009804,0.6271186440677966,0.6363636363636364,0.9285714285714286,0.4,49.31506849315067,48.64100794264811,49.974979481613744,63.63636363636363,0.7380729653882132,0.2619270346117868,3.720497985909667,2.2163665540145625,0.48930279347542605,0.5106972065245742,13.945246055941672,14.246857325572334,0.5005126998083228,0.4994873001916772,10.20568451462014,10.195224969488619,1.5552445122500136,0.91973471028862,1.1650620674636336,1.36316759809595,1.0,1.3378476005500417,-0.28460579076095843,0.008789084858428503,0.25950216629454026,0.2666491125159334,0.2330609879715557,4.000482604197413,0.3868727630923226,0.2254487739772902,0.25432809195409894,0.25283505661056077,0.7873949102522007,1.1727639596670771,1.4081652816546328,0.3988232575838537
