Stress,ECG_Rate_Mean,HRV_MeanNN,HRV_SDNN,HRV_RMSSD,HRV_SDSD,HRV_CVNN,HRV_CVSD,HRV_MedianNN,HRV_MadNN,HRV_MCVNN,HRV_IQRNN,HRV_Prc20NN,HRV_Prc80NN,HRV_pNN50,HRV_pNN20,HRV_MinNN,HRV_MaxNN,HRV_HTI,HRV_TINN,HRV_SD1,HRV_SD2,HRV_SD1SD2,HRV_S,HRV_CSI,HRV_CVI,HRV_CSI_Modified,HRV_PIP,HRV_IALS,HRV_PSS,HRV_PAS,HRV_GI,HRV_SI,HRV_AI,HRV_PI,HRV_C1d,HRV_C1a,HRV_SD1d,HRV_SD1a,HRV_C2d,HRV_C2a,HRV_SD2d,HRV_SD2a,HRV_Cd,HRV_Ca,HRV_SDNNd,HRV_SDNNa,HRV_DFA_alpha1,HRV_MFDFA_alpha1_Width,HRV_MFDFA_alpha1_Peak,HRV_MFDFA_alpha1_Mean,HRV_MFDFA_alpha1_Max,HRV_MFDFA_alpha1_Delta,HRV_MFDFA_alpha1_Asymmetry,HRV_MFDFA_alpha1_Fluctuation,HRV_MFDFA_alpha1_Increment,HRV_ApEn,HRV_ShanEn,HRV_FuzzyEn,HRV_CD,HRV_HFD,HRV_KFD,HRV_LZC
0,88.56370615040773,89.0,12.008127329072568,8.581034106764955,8.65384448613701,0.13492277897834346,0.0964161135591568,85.0,8.8956,0.10465411764705883,13.75,79.2,96.0,0.0,2.380952380952381,76.0,126.0,2.3333333333333335,0.0,6.1191921194812915,15.646494971016633,0.39109028129407925,300.78836027375706,2.556954360233904,3.185231136141083,160.0294941540753,0.6190476190476191,0.6216216216216216,0.8260869565217391,0.2222222222222222,42.72300469483569,42.425744830267966,43.09430668232547,56.75675675675676,0.58198078834051,0.4180192116594898,4.686416541452541,3.9717754216471,0.3920000609918601,0.60799993900814,9.796256144251407,12.200252884029302,0.4173739415877917,0.5826260584122083,7.678838924075158,9.07251812988724,1.005523286122922,1.8644993661942975,2.2760705933562733,1.4460129453485004,0.732319968065557,0.80816228347103,-0.9451906302880843,0.006308611024382998,0.4339774096454933,0.32394563023521794,4.22280753042724,0.9014658250924931,1.221986299628355,1.5739113044452022,2.008652774916747,0.8987195704631268
0,90.96213044379952,85.93181818181819,6.732074310664797,4.697847107118373,4.751988567835282,0.07834204434521318,0.054669471756997726,84.5,6.6716999999999995,0.07895502958579881,10.25,80.0,92.4,0.0,0.0,77.0,101.0,2.0,0.0,3.3601633404372775,8.979458531895135,0.37420556356510143,94.7895390167974,2.6723279859146927,2.683730521161017,95.98423333257531,0.6590909090909091,0.6486486486486486,0.8333333333333334,0.4444444444444444,51.633986928104584,51.71293662099261,51.55193788269138,51.35135135135135,0.5658587987355111,0.43414120126448896,2.5284100029182652,2.2146697055682827,0.5622531687901065,0.43774683120989366,6.733116129712458,5.941028758542604,0.5626962862626843,0.4373037137373157,5.085651873607316,4.483334953725417,1.1705589936139387,1.03253015086307,1.227771709872166,1.3388367085667867,-0.46337708733567595,-0.5523492110033006,-0.3924341351177167,0.00022406339675872216,0.040437598124091347,0.6022873070092838,4.146376220664177,1.1401242604828197,2.0655256673668836,1.7275729336572083,2.118646242886842,0.9926239306613268
0,80.05459412237471,97.84615384615384,13.3249636348639,9.253733243797793,9.37779830214601,0.13618280444436376,0.09457431774321645,98.0,14.825999999999999,0.15128571428571427,17.5,86.0,111.2,0.0,2.564102564102564,77.0,129.0,3.25,23.4375,6.6311047720471334,17.65006779914363,0.37569854390977864,367.69027256124474,2.6617084793390706,3.2724522504946303,187.91734048756038,0.5641025641025641,0.59375,0.8421052631578947,0.08333333333333333,49.59677419354836,49.422456105265155,49.76812061059054,53.125,0.6407498463429625,0.3592501536570375,5.3080764572183465,3.9745813990025787,0.5179117566338012,0.4820882433661985,12.702063010849905,12.254896514567783,0.533106098178644,0.4668939018213562,9.734425519959487,9.109878865277597,1.4031791033703092,1.7372447663005888,1.6854814552835842,1.66612597433086,-0.2179192670786172,0.35159843177430616,-0.5111414818039377,0.00033562437347283916,0.15364765397536845,0.37570250842374264,4.404260475872499,1.0911560072132007,1.6080804561991657,1.511928822726632,1.9293879825349864,1.0841850705358458
0,87.47264513424672,89.23255813953489,9.24233842112411,8.472645058404979,8.574500997931644,0.10357585408088003,0.09495015311738704,87.0,8.8956,0.10224827586206897,11.0,81.0,95.2,0.0,2.3255813953488373,77.0,124.0,2.8666666666666667,23.4375,6.063087800928284,11.74443550746831,0.5162519558366815,223.70509602395816,1.9370386662832406,3.0566459874418643,90.9977027665438,0.4418604651162791,0.47619047619047616,0.7,0.09090909090909091,50.98039215686274,50.95584597999374,51.01372191110103,52.38095238095239,0.6003316749585407,0.3996683250414594,4.698209311185201,3.8334217027636694,0.40865007307200235,0.5913499269279977,7.507717762755791,9.031386348943533,0.44899239074422376,0.5510076092557762,6.262547274747958,6.937617074151005,1.1477485000507897,0.8963772567457653,1.318089230202786,1.3260437110995813,0.28050417193402843,-0.03309766323254948,-0.49112596751319476,0.00012956462320569759,0.04328184700688553,0.2246492729180578,4.027684161971456,1.279769705534122,1.8951238410821458,1.8441273907197744,2.068068397096318,1.0095376287817857
0,76.08624570997932,102.86486486486487,18.525001367764474,14.530619012584731,14.703714032488742,0.18009065964458368,0.14125930201409223,98.0,14.825999999999999,0.15128571428571427,21.0,89.2,115.4,2.7027027027027026,10.81081081081081,78.0,148.0,3.3636363636363638,39.0625,10.397095901000585,23.817985401192697,0.4365228933459647,777.9773394843519,2.290830596157195,3.597937057233963,218.25187878351053,0.5945945945945946,0.6176470588235294,0.9047619047619048,0.08333333333333333,54.820936639118464,54.1307740327244,55.53824668145515,50.0,0.6689909222470728,0.33100907775292737,8.52307791486486,5.995236204092141,0.4563111583974953,0.5436888416025047,16.089241451236614,17.562253218059407,0.4904798138587843,0.5095201861412157,12.874520333182273,13.122034812446108,1.085780523670008,1.0070509757133488,1.2678833919826045,0.9908372216338264,0.5755376089771325,1.0190690583138,-0.7751064017911619,0.00040036988255856397,0.06046708247564962,0.3907333596923577,4.49959762221029,1.1134911141432347,1.759691157526705,1.6670467239791475,2.2966606619760084,0.9855722583622337
0,64.28765312066905,121.64516129032258,13.590556493626433,12.726612536989828,12.92813913945837,0.11172295181713589,0.10462078723062442,120.0,11.8608,0.09884,15.5,110.0,128.0,0.0,16.129032258064516,105.0,160.0,4.428571428571429,0.0,9.14157485363423,17.075239181441887,0.5353702373650902,490.38557674809636,1.867866254429195,3.3975077981629536,127.57705221328999,0.4838709677419355,0.5172413793103449,0.7333333333333333,0.14285714285714285,53.429602888086634,53.474544774079924,53.351436999851906,37.93103448275862,0.46758592302942986,0.5324140769705702,6.25878692664189,6.6785813071236975,0.7296791380605178,0.27032086193948207,14.58588417756631,8.877824951082834,0.671179896829079,0.3288201031709211,11.223199878699539,7.855546579899167,0.965821106306791,1.210037295190265,1.1992394868230074,1.3177569282851112,0.038822956062135816,-0.35393313222940037,-0.402054720186564,0.0004988467661350115,0.09939534657177786,0.2329136939386114,4.2201676812848286,1.423529512012285,1.7056679709718932,1.9612060962085929,2.1474342752132025,1.2785022736482259
0,69.2374625669314,111.81818181818181,21.94233144155172,14.89442009612996,15.111914494114217,0.19623223240412108,0.13320213094099964,110.0,29.651999999999997,0.26956363636363634,37.0,89.4,128.8,0.0,18.181818181818183,85.0,155.0,3.6666666666666665,0.0,10.685737215499438,29.47770309638642,0.3625023693521552,989.5733770035187,2.7586026590312955,3.702418112694421,325.2690805753065,0.6363636363636364,0.6774193548387096,0.9047619047619048,0.2857142857142857,53.561253561253565,53.646670490312054,53.42063246730604,54.83870967741935,0.6071277644738696,0.39287223552613054,8.337633299219753,6.707001637672525,0.4455879684036874,0.5544120315963125,19.67706716818413,21.94875867782686,0.46439582762084625,0.5356041723791537,15.111305393206237,16.22855320823797,1.3539877637236022,1.5478287487334104,1.7534997788987905,1.7675117677344359,0.3992002292834407,0.3515295263336373,-0.4909473261514807,0.003398439572520128,0.24497568794105498,0.20875465238430246,4.47606419505047,0.9947220233278965,1.1088728380278334,1.498829962272802,2.2001297568903007,1.0700229950154296
0,66.28850104594295,117.33333333333333,16.493685660478274,20.130822139197395,20.413468039981712,0.14057118460634893,0.17156950686815964,112.0,20.7564,0.185325,24.0,103.0,131.6,0.0,24.242424242424242,93.0,147.0,4.125,23.4375,14.43450167860593,18.014722921418574,0.8012613761294132,816.9194848654337,1.2480322024638415,3.61914936477845,89.93181729757549,0.6060606060606061,0.6451612903225806,0.95,0.09090909090909091,45.67099567099567,45.650874810335246,45.6829741887605,48.38709677419355,0.5119524984577422,0.48804750154225784,10.347977829570873,10.103496679926723,0.5723278102033336,0.42767218979666644,13.628561285465663,11.781025389319483,0.5486658681543269,0.4513341318456732,12.099965451871832,10.974361129129125,0.5628598241716107,2.403011507740632,1.0796033883499982,1.50287015799127,-0.8049075019251042,-1.2264686802563205,-0.32385986572355746,0.005832741420140837,0.565207645266216,0.2774671587545656,4.369707376737532,1.311272872115193,2.2448387617218977,1.8475954031818453,2.7900117493417387,1.3757438507341235
0,68.86699657887654,113.84848484848484,9.017764454540592,11.78187166794818,11.968877652397676,0.07920847138670203,0.10348729439507318,112.0,8.8956,0.079425,9.0,106.4,120.80000000000001,0.0,6.0606060606060606,97.0,139.0,2.75,31.25,8.463274551202522,9.730128633569366,0.8698008906073305,258.706228171835,1.1496884066211512,3.1197769941406506,44.746464339788815,0.6363636363636364,0.6875,0.9090909090909091,0.0,49.0,48.920615100604614,49.08773974201344,53.125,0.5360198108959926,0.463980189104007,6.197033629604701,5.765581972695468,0.3963344353585042,0.6036655646414957,6.1256120085946275,7.559912747245681,0.45650607612582583,0.5434939238741742,6.1614263075318165,6.722879451166691,0.8136768969171255,1.5703395045634272,1.0953647975714815,1.2188661839507398,-0.2498880664752985,-0.28518667603346914,-0.4213537034377843,0.0006928432483110048,0.1534623512661267,0.13254803206128862,4.286225937278033,1.5005379150159606,1.9534664383639164,1.9598040630898022,3.39761385986762,1.3757438507341235
0,77.57120723092186,100.60526315789474,19.455478591547767,14.335742516992745,14.520979955184115,0.19338430198242612,0.1424949557012096,96.0,18.5325,0.19304687499999998,23.25,85.8,115.0,2.631578947368421,10.526315789473683,72.0,153.0,4.75,54.6875,10.267883395784615,25.677019089242215,0.3998861145095501,828.2766241430693,2.500711987027792,3.625145514712085,256.84331771043776,0.5263157894736842,0.5428571428571428,0.7894736842105263,0.0,46.5625,45.6872376082243,47.48811623183124,54.285714285714285,0.6290110468174644,0.37098895318253555,8.150494190879197,6.259437319404641,0.4351243483291993,0.5648756516708009,16.93757755880656,19.298387905437117,0.4618939169148518,0.5381060830851481,13.291201772528757,14.34587625947396,0.6191522794895814,2.5839956862900744,1.1847202642135652,1.1663479541793982,-0.5147992058988287,0.23175499248538411,-0.5071100389724508,0.0020667519687182,0.44838123144304665,0.3065970520009462,4.609383763272785,1.0381432343936094,1.6902667260425464,1.7344078417831588,2.012953570858802,1.1048268449354917
0,87.65814297173445,89.18604651162791,7.862678006020377,5.603995173513438,5.667776758111679,0.08816040528262743,0.06283488721279734,90.0,10.3782,0.11531333333333332,13.5,81.0,97.2,0.0,0.0,75.0,102.0,2.6875,23.4375,4.0077233799122745,10.464210894279297,0.3829933685781568,131.751052900447,2.6110112655799984,2.826724204563847,109.2886901214728,0.6976744186046512,0.717948717948718,0.8928571428571429,0.3333333333333333,52.4590163934426,52.398338174749846,52.50452102953324,43.58974358974359,0.536770280515542,0.46322971948445796,2.9383917950919027,2.7296922009990654,0.5786813098423288,0.4213186901576711,7.960240913552993,6.792221598133451,0.57331320190932,0.42668679809068005,5.999982572610791,5.1761710631675255,1.0174596098746373,1.4451437816111163,1.3020236499080653,1.7400315006801956,-1.4566193608214348,-2.4843921898136916,-0.19691053835223382,0.0019521836709801928,0.19102100451828782,0.27011457065340183,4.303830742923251,1.2256682541788035,1.9608889298869787,1.796055073538521,2.873423689158625,0.630961017988616
0,77.3430915094327,101.0,12.467736139510029,11.37003860054036,11.511484948271692,0.12344293207435672,0.1125746396093105,103.0,13.343399999999999,0.12954757281553397,18.0,91.0,112.0,0.0,8.108108108108109,72.0,126.0,3.7,39.0625,8.139849068449786,15.646795909138145,0.5202246591390572,400.1212737441761,1.9222464418640675,3.309161752628187,120.30799105165619,0.6756756756756757,0.71875,0.8695652173913043,0.2857142857142857,54.347826086956516,54.03761264275458,54.58270912539662,56.25,0.6510528577567682,0.3489471422432317,6.579187965525401,4.8166378315169185,0.3812794368299497,0.6187205631700504,9.661556759257055,12.307580721241544,0.43889466754592915,0.561105332454071,8.265331006622178,9.34549472232146,0.9039457301130562,1.3235887224915945,1.2556885093468957,1.114306887294494,0.3457442207525485,0.4281122368386785,-0.6068168832583111,0.000977576621715645,0.12760747660691543,0.20131184773955857,4.4455435681562365,1.162648174911727,1.6196354770820072,1.7220221722952644,2.3599597367886753,1.1263682952711243
0,69.2071127550109,112.82352941176471,14.309290451534677,16.84780356154727,17.107669288504745,0.12682895603550026,0.14932881154656077,112.0,14.825999999999999,0.132375,22.0,102.0,127.4,0.0,26.47058823529412,80.0,135.0,3.4,23.4375,12.096948964198544,16.57475604281366,0.7298417504879919,629.9018241242692,1.3701600372017262,3.5062429759810674,90.84027342492442,0.6470588235294118,0.696969696969697,0.9130434782608695,0.2857142857142857,49.23747276688453,49.22622941791226,49.25311404290311,57.57575757575758,0.5226860254083483,0.47731397459165165,8.74642784226795,8.358192089202067,0.37948516592258386,0.6205148340774161,10.210442099615722,13.056393453369223,0.429258826706329,0.5707411732936709,9.506658925974076,10.961952038966023,0.9311269690935252,1.1899571415692929,1.1825370998806246,1.5261055398781718,-0.7823551534053816,-1.8277324237926833,-0.21127662669896202,0.0025407396659495097,0.16872076576618278,0.011237261367182061,4.535848502951415,1.4497638949431537,2.3757214753038456,1.885054218486559,3.391312448969508,1.3466813403309723
0,71.19430631065342,109.76470588235294,11.89871096540067,14.78123298256436,14.997790241272616,0.10840197556903076,0.1346628942677353,109.5,9.636899999999999,0.08800821917808219,13.0,101.2,118.4,2.941176470588235,11.76470588235294,89.0,150.0,3.4,39.0625,10.605039182417293,13.075212206401249,0.8110796991291178,435.6230949334782,1.2329244599189597,3.3460810061517963,64.48299579161221,0.6470588235294118,0.6666666666666666,0.85,0.375,53.184713375796186,53.062895280702335,53.32662289703352,56.666666666666664,0.7474341192787796,0.25256588072122055,9.176226076116476,5.334147073337967,0.3050323491373704,0.6949676508626296,7.221404890355474,10.900114020136407,0.4807596499215864,0.5192403500784134,8.25687027845448,8.580955968071805,0.607577042719991,1.0936362985788175,0.9498403730713401,0.5438036165964159,0.5205451373765477,0.8740113995894467,-0.8712722017388869,0.0013247481270900118,0.1002770529918155,0.23451230839124326,4.59467203236318,1.3727919984776076,1.9993617276936644,1.8755819147399928,1.9726793270816154,1.1970500802941975
0,75.35492094358521,103.64864864864865,17.22436293970487,17.831775632903813,18.082943818495295,0.1661802943335281,0.17204059932658178,102.0,14.825999999999999,0.14535294117647057,19.0,91.2,118.4,2.7027027027027026,18.91891891891892,74.0,139.0,5.285714285714286,46.875,12.786572197873383,21.057168971145312,0.607231305186127,845.8707159880845,1.6468189163822549,3.634274099923307,138.70937674855827,0.5135135135135135,0.5428571428571428,0.8421052631578947,0.1,49.06054279749477,48.69095551562816,49.440742284522855,54.285714285714285,0.6198130514545295,0.3801869485454704,10.06762846241074,7.8848860848732985,0.49959902444321336,0.5004009755567865,14.883695382112375,14.895636168081301,0.5319888107282409,0.46801118927175905,12.705934264835784,11.917453700838958,1.0038250234108073,1.8134263784361708,1.355940899446626,1.7676315154923037,-0.9222312313212075,-1.6456681409651175,-0.272976382751913,0.0017969193307417672,0.2664698978066594,0.3158548129950338,4.68216214929579,1.3838775807632528,2.347065290598305,1.8871387535283577,3.503854415572854,1.267164332180015
0,69.38030163428665,111.72727272727273,16.77474427389418,16.45353305524379,16.67983015114266,0.15014010334648978,0.14726514532764984,111.0,16.3086,0.1469243243243243,22.0,98.4,123.2,0.0,24.242424242424242,68.0,140.0,3.6666666666666665,54.6875,11.79442100891281,20.475287524075174,0.5760320090765387,758.6762831426636,1.736014638497507,3.587026617828069,142.18159547695953,0.5454545454545454,0.5806451612903225,0.8333333333333334,0.1111111111111111,45.90163934426229,46.093289876502965,45.757762104975555,54.83870967741935,0.5111393281773058,0.4888606718226943,8.45099726888547,8.264771721766017,0.5658160015064314,0.43418399849356853,15.401663185956547,13.49170746421294,0.5521482999513968,0.44785170004860314,12.422370621832993,11.187775067295606,1.1889439717246484,0.5733705117494288,1.3307373142165437,1.4242570527747305,-0.21715109981648517,-1.2171510998164852,-0.3368947536683641,0.0005327660870093976,0.03499092309289699,0.20121130010304533,4.438333513297847,1.563655319448672,1.900505920750442,1.8878530112296843,2.147769154576038,1.5286042785934708
0,73.76420738766224,106.0,16.54603966426494,18.690715800708574,18.959842569285772,0.15609471381382017,0.17632750755385448,102.5,12.6021,0.12294731707317073,15.5,95.0,113.0,2.7777777777777777,19.444444444444446,79.0,148.0,3.6,39.0625,13.406633250971343,19.416011758469914,0.6904936718079047,817.7670884279584,1.4482391958520366,3.619599738065965,112.47611702296062,0.5555555555555556,0.5757575757575757,0.8947368421052632,0.09090909090909091,48.57142857142858,48.03836858856822,49.134270305718644,63.63636363636363,0.6543714729696574,0.3456285270303427,10.847200777430201,7.883340587817414,0.2841192565192138,0.7158807434807865,10.349285341647176,16.427836300688195,0.4036878106563225,0.5963121893436776,10.601166723260121,12.884503567187565,0.9075628265478181,2.612855010302903,1.5061936138356182,1.7012258961268438,-0.8842134579275029,-0.7030930603229466,-0.42535663803686685,0.0034022369938402058,0.5194774287703141,0.3849271835721946,4.495906598484246,1.2993801889510064,1.832742597277512,1.912044252273061,2.9160356085198655,1.292481250360578
0,80.67210793337149,96.95,14.415002868272614,14.473671942087794,14.662510145901946,0.1486849187031729,0.14929006644752751,97.0,16.3086,0.16812989690721647,22.0,84.8,109.2,2.5,7.5,74.0,136.0,4.444444444444445,46.875,10.36796035338382,17.673088487306398,0.5866524326424638,575.6462136788248,1.7045868121533068,3.4671257623911305,120.50125426192366,0.475,0.5,0.7894736842105263,0.1111111111111111,50.57803468208092,49.967679325528586,51.201285470134906,60.526315789473685,0.8028151774785801,0.19718482252141975,9.289920967314382,4.604059993207368,0.3296086168603099,0.6703913831396899,10.146394179962913,14.470270965844994,0.45077368147763525,0.5492263185223648,9.727588252854165,10.737460366539874,1.2093042398108906,2.447463382505638,1.758382076425809,1.5641489567488296,0.0496791488328725,1.0746048046074779,-0.5793609910838091,0.0019781920155924324,0.414052648948562,0.3823269576907329,4.834183719779191,1.0754547695695436,1.8416564204282668,1.717805630403028,2.071720687082088,0.7982892142331044
0,81.26627246556278,96.38461538461539,17.08741516687121,13.417388560724984,13.594330882685524,0.17728363700664462,0.13920674484391443,95.0,16.3086,0.1716694736842105,20.5,83.0,107.0,2.564102564102564,7.6923076923076925,68.0,145.0,4.333333333333333,39.0625,9.612643552840638,22.211938212288338,0.43276923701879483,670.7785523480891,2.3107002865745994,3.5335492778705158,205.30052797004785,0.5128205128205128,0.5277777777777778,0.7368421052631579,0.2,48.25396825396825,47.59187836329246,48.96431011595938,55.55555555555556,0.6592603420552552,0.3407396579447448,7.806788452747131,5.612486080160911,0.33866358080413633,0.6613364191958637,12.926195043593014,18.06332419134159,0.3892560253950727,0.6107439746049272,10.677838363895441,13.37504543621266,1.1946459565749126,0.6030629576389268,1.2262354408206713,1.11048986919659,0.4181829386137075,0.330014646340989,-0.6919294994957753,0.0007833159791636163,0.03051280807899006,0.45511651888430116,4.682587475161557,0.9436094615336209,1.7135375979913803,1.6542116140137135,1.8697853696173228,0.9486619367188652
0,75.65751423177362,104.0,17.646214576755234,14.482748357960238,14.651155217468322,0.16967514016110802,0.13925719574961767,105.0,14.825999999999999,0.1412,18.0,93.4,118.0,0.0,18.91891891891892,58.0,135.0,4.111111111111111,70.3125,10.359931206488517,21.65013105279445,0.478515865849751,704.6399689543574,2.0897948665175288,3.5549373837829052,180.97733093424634,0.5945945945945946,0.625,0.85,0.18181818181818182,55.3314121037464,56.84262212164059,54.17940575330221,43.75,0.6536882532114953,0.34631174678850485,8.39727847068833,6.112048990080401,0.6524363509459112,0.34756364905408865,17.487575584500934,12.7637327917636,0.6526705593724812,0.3473294406275188,13.717317258449608,10.006748164031217,0.9300423874858667,1.3427590351095051,1.3079141482550902,1.3897490699425126,0.2964066541407355,-0.2675148732099859,-0.43905464826699264,0.0018679152841131292,0.18394959239590727,0.31723703419166327,4.519999987133628,1.2146414418625369,1.5658128282032755,1.7449713770135649,1.7245041684898836,1.1263682952711243
0,83.2422706339001,93.3,15.861904047118683,11.302370978851727,11.411869664115924,0.17000968967972865,0.12114009623635291,90.0,20.0151,0.22239,25.25,79.6,107.2,0.0,7.5,71.0,141.0,5.0,0.0,8.069410425513416,20.80477664970222,0.3878633527954223,527.4177425348665,2.578227596891444,3.4291248454976637,214.55779722169993,0.625,0.6363636363636364,0.8571428571428571,0.1,43.43065693430656,42.391364672433276,44.4697538117224,63.63636363636363,0.6417101565636291,0.35828984343637105,6.485814480362833,4.84632253417611,0.3344652539833273,0.6655347460166725,12.032020455693917,16.972601898287653,0.37487669245849425,0.6251233075415061,9.66528079571207,12.48110686804301,1.299833406966954,1.3513611739364855,1.7377165711378502,1.7864888020753256,0.39650777627828404,-0.23216031138350246,-0.46390881144275964,0.002974391212774591,0.2209760134885044,0.4143985734931821,4.68418371977919,0.8713786833450606,1.6121215223187024,1.6252000577983492,2.242146999385624,0.7982892142331044
0,99.30724756493048,78.65306122448979,5.900392008192349,3.8837267325770144,3.919174540386557,0.07501795755096656,0.049377947560008746,78.0,4.4478,0.05702307692307692,5.0,74.0,81.4,0.0,0.0,70.0,96.0,1.6896551724137931,0.0,2.7712748941610053,7.894697026153175,0.3510299236285393,68.73294426348218,2.8487599850837855,2.544135057828312,89.96038792986049,0.5306122448979592,0.55,0.7272727272727273,0.09090909090909091,53.906249999999986,54.09648538742542,53.70496660421467,45.0,0.5151933701657457,0.48480662983425404,1.9920052977798473,1.9323670855175237,0.5858936428463055,0.4141063571536944,6.042892392170902,5.080324071493353,0.5781176152859361,0.42188238471406386,4.499146228438232,3.8434187401704154,1.2774784848244334,1.641913124201574,1.691242905252821,1.6372105382114563,0.22025116757775187,0.2698099459556236,-0.5329081765928629,0.0012844921099647716,0.20771525360212123,0.5287035809497636,3.986660098996487,0.994044669046027,1.727072383003567,1.6222572460578824,1.7966603056775343,0.8021014063021725
0,85.5273629662779,91.69047619047619,14.502292661873804,11.026575436356408,11.149100368388035,0.15816574702640868,0.12025867783094499,88.0,11.119499999999999,0.12635795454545454,14.75,80.2,97.80000000000001,0.0,9.523809523809524,76.0,134.0,3.5,31.25,7.8836044746166145,19.027771744504808,0.41432095047563244,471.26222897251796,2.4135878208717645,3.3802327430034915,183.70079256345878,0.5476190476190477,0.5526315789473684,0.7619047619047619,0.18181818181818182,54.33962264150944,54.53457810609446,54.11868552933914,52.63157894736842,0.6074222668004012,0.3925777331995987,6.152235366108809,4.945957945636011,0.6238556110804132,0.37614438891958685,15.028996240244792,11.669848738166381,0.6214426079238798,0.3785573920761201,11.483046807996823,8.962362120883185,1.288902052515639,0.7899251850277402,1.6433968976680289,1.3631655589833271,0.7199576350459189,0.35949026895922165,-0.8547568098804962,0.002211246128598693,0.09329823249627173,0.41420793665487476,4.594465636961452,0.9471562255289524,1.3986243309475417,1.6817049378966185,1.7810162934250857,0.7703310603969659
0,75.20179167840048,103.72222222222223,15.808878357449492,12.20070255588353,12.370132095787293,0.15241553852923986,0.11762862667697029,105.0,17.7912,0.16944,21.75,88.0,117.0,2.7777777777777777,5.555555555555555,79.0,139.0,4.5,39.0625,8.747004289104552,20.77921149254949,0.42094976954447205,571.0028495457914,2.375580347940666,3.463608385526247,197.4507458696136,0.4722222222222222,0.5,0.7647058823529411,0.0,52.941176470588246,52.6440983789513,53.201583759821425,44.11764705882353,0.6207293666026871,0.3792706333973128,6.896290563006446,5.390623667945275,0.5089152223529906,0.4910847776470092,14.823535033059779,14.56153973231369,0.5257662253513411,0.4742337746486589,11.560623132118838,10.979464078568727,1.2982559630461976,1.738338011301142,1.6106928641493419,1.7429864269337632,-0.4760087506978472,-0.5501401147393592,-0.4238965253452636,0.0006315160341160851,0.1802701286273519,0.3468386556419376,4.725480556997868,0.9840590887831387,1.8403844676761802,1.6287939686115305,2.2783917293006253,0.861654166907052
0,78.25247875706907,99.42105263157895,12.222335732334953,9.924035796312229,10.0428511319674,0.12293508677308847,0.09981825311272226,99.0,11.119499999999999,0.1123181818181818,14.75,90.4,110.0,0.0,5.263157894736842,71.0,125.0,3.4545454545454546,39.0625,7.101368137861142,15.79105307942942,0.4497083318092258,352.29217209039535,2.2236634931287367,3.2538731032545423,140.45595300314127,0.47368421052631576,0.47058823529411764,0.6875,0.0,45.45454545454545,45.40023851795963,45.52428838420207,58.82352941176471,0.6448957189901208,0.3551042810098792,5.7130455003342036,4.239365780658968,0.4330940634020021,0.5669059365979979,10.392073476312751,11.889582255919436,0.46882954313164693,0.5311704568683532,8.38552562532522,8.925648112111986,0.8723060417524079,2.3193115411898697,1.3185706986879235,1.26076291418758,-0.6243029013319958,0.22802331283479438,-0.5249245448374247,0.0007732789337835778,0.2962891277462487,0.3953943707186087,4.491219947597179,1.1378028998897398,1.645809055655631,1.774927093134036,1.941719297569071,0.9667234893185551
0,85.83822292522724,91.61904761904762,20.247194784261435,24.762284460592827,25.067518580922165,0.22099329026480777,0.27027441459067014,94.5,14.825999999999999,0.15688888888888888,19.5,78.60000000000001,105.0,4.761904761904762,23.809523809523807,43.0,138.0,3.8181818181818183,70.3125,17.725412376089842,22.882254280896575,0.7746357574082218,1274.2217908659263,1.2909293050785604,3.812215137777274,118.15749046987493,0.5476190476190477,0.5641025641025641,0.8181818181818182,0.07692307692307693,48.86363636363636,49.7269597036806,48.16222338755051,51.28205128205128,0.4410103420843279,0.5589896579156722,11.772319227747776,13.253773047702301,0.6696919194357893,0.3303080805642109,18.725625640326513,13.150988759555533,0.5839207254503135,0.41607927454968646,15.640277421159347,13.202480928862498,0.6339578495535575,2.2336305999361654,1.258098804656307,1.1268571672596703,0.24214982962582887,0.7055256525679365,-0.5587570914368686,0.003816030345252786,0.44559320705910493,0.4345878182830454,4.89815343463201,1.3083663946872053,1.8093712006681983,1.9092430969762895,2.785089152213153,1.1554965905954486
0,76.16017950214786,102.64864864864865,13.550760979484627,9.004628439493398,9.127100758399036,0.1320110995895027,0.08772281523466449,100.0,13.343399999999999,0.133434,22.0,91.0,115.8,0.0,2.7027027027027026,81.0,132.0,4.625,39.0625,6.453834838836839,18.045566223243323,0.35764102710859097,365.8796318718791,2.796099787780692,3.2703083434116063,201.82881554877233,0.6216216216216216,0.625,0.8,0.2222222222222222,47.639484978540764,47.3487542754595,47.90697534676098,46.875,0.3621103117505996,0.6378896882494005,3.885871845545089,5.15751878329105,0.527519503908364,0.4724804960916359,13.10659181931618,12.404019961258307,0.5087425748623239,0.49125742513767606,9.666507878188632,9.498939709233197,1.2350323240590915,2.407584643083709,1.664584942904869,2.027684713531249,-1.2166012370597343,-1.294593095235462,-0.3491850445759154,0.0019784609066962793,0.3987567463806883,0.21848413763066032,4.463246866319847,1.0401604503061843,1.8529637952515445,1.707599057376796,2.088298451445618,0.7039801845444527
0,69.6338566753044,111.70588235294117,14.817126478391444,12.754084313139327,12.949493964607033,0.132644102228886,0.11417558363526517,111.0,13.343399999999999,0.12021081081081081,17.5,101.0,123.80000000000001,0.0,11.76470588235294,85.0,145.0,3.7777777777777777,31.25,9.156674995307903,19.18095646491829,0.47738364935321853,551.7698069452879,2.094751257934465,3.448728041995113,160.71733073309517,0.4117647058823529,0.4375,0.7142857142857143,0.0,48.757763975155285,48.719252609133356,48.816608073810094,56.25,0.5135991058122205,0.4864008941877795,6.563392796412538,6.387243145520609,0.5622083277175012,0.43779167228249893,14.38198716283901,12.691238558825722,0.5531838875715426,0.44681611242845737,11.178543727875875,10.046502156398136,1.195153140547695,1.2970356518035393,1.477049550319793,1.550799543998313,-0.03564316897706021,-0.3813234999450925,-0.4431395786415198,0.0005120908273829191,0.11132802148208253,0.2458555044525088,4.616874605956223,1.27461061877401,1.8560562395632871,1.8289076719970112,3.1131166668658636,1.0474188202574226
0,72.61812040612975,107.28571428571429,11.30218986738054,11.963178802426366,12.140737393434058,0.10534664323790116,0.11150765861116453,107.0,13.343399999999999,0.12470467289719625,17.0,97.4,116.4,0.0,5.714285714285714,90.0,132.0,3.1818181818181817,23.4375,8.584797739502312,13.699018271550631,0.6266724789564482,369.4616667454215,1.595729880567321,3.274539495088971,87.43973116140414,0.5428571428571428,0.5757575757575757,0.8421052631578947,0.1111111111111111,48.78048780487806,48.77673272881305,48.78794656372881,51.515151515151516,0.5055487053020962,0.4944512946979037,6.105139414683933,6.037759969934665,0.5584919175546432,0.44150808244535655,10.237593734331574,9.102459894723674,0.5435588556208082,0.45644114437919203,8.428554227800648,7.723642974322362,1.0782118852084062,0.8803802337131743,1.2142805845209845,1.0253749386435682,0.5488094524925025,0.8437800363445143,-0.7145727932585108,8.240740114121547e-05,0.03626609988116148,0.2147872182244166,4.264578373902384,1.5542301462580885,1.878356205870041,1.8922936579582406,3.7032937488362534,1.0258566033889933
0,75.6163850979285,103.02702702702703,12.168918710492834,9.26612708261176,9.390429102557494,0.11811384897382865,0.0899387990704709,104.0,14.825999999999999,0.1425576923076923,17.0,89.2,113.6,0.0,2.7027027027027026,81.0,132.0,4.111111111111111,39.0625,6.640036096669909,15.986043019727283,0.4153645832477677,333.473471297143,2.40752351146774,3.2300314003057395,153.9470977013127,0.4594594594594595,0.5,0.6666666666666666,0.2222222222222222,47.54716981132076,47.300364561374195,47.794838911007105,50.0,0.5150436751860239,0.4849563248139762,4.768947173418588,4.627557208105126,0.6165769920573916,0.38342300794260825,12.552627309888251,9.89874330648184,0.6016178298915225,0.3983821701084775,9.49503316275961,7.726558249372897,1.187277565302286,0.8395779737327731,1.348432738947916,1.498875449490133,0.06017987258014301,-0.7261698605458218,-0.32081150858049917,0.00021432261346824333,0.04682474524835134,0.313717006296808,4.702564514219127,1.1965840103961891,1.8639214487336992,1.6932567088535486,2.613637439585669,1.1263682952711243
0,77.6040056699324,101.16216216216216,18.027006766875445,12.654599515152144,12.820463553018888,0.17819910509601697,0.1250922206947981,97.0,19.273799999999998,0.19869896907216492,27.0,84.0,118.80000000000001,0.0,10.81081081081081,80.0,141.0,3.7,0.0,9.065436716294634,24.026068844631745,0.3773166877576881,684.2602636808665,2.6502935927450886,3.5421914303684447,254.70454527111963,0.4594594594594595,0.45454545454545453,0.6666666666666666,0.2857142857142857,53.35463258785943,53.68556445223036,53.022366787807584,54.54545454545454,0.62081526452732,0.37918473547268,7.1504245628194285,5.588252985376685,0.5030020164870733,0.49699798351292673,17.039921127664794,16.937918174614822,0.51771188344067,0.4822881165593299,13.066894877238594,12.611931721955177,1.2661670648974024,1.6007780998215857,1.2760127748025996,2.034937414943654,-0.5447463925037219,-1.4815089927746392,-0.025902659321963447,0.0035019980381371454,0.2881684369804586,0.1986001117487648,4.7770209331965185,1.05528774704389,1.4766577197129012,1.6534910391477753,1.9057550512423915,1.1263682952711243
0,76.33048616408261,102.35135135135135,17.22113723212168,12.399596767637245,12.558782420004572,0.16825510366741542,0.12114736741552101,98.0,16.3086,0.1664142857142857,25.0,88.2,117.2,0.0,10.81081081081081,82.0,144.0,3.3636363636363638,0.0,8.880400212631631,22.84505260601141,0.38872312381083585,637.3449862090255,2.5725251181265705,3.5113446836634026,235.0778866155489,0.2972972972972973,0.3333333333333333,0.4166666666666667,0.0,53.39233038348081,53.37232000469593,53.34429938178745,58.333333333333336,0.6097560975609757,0.3902439024390244,6.943650748294136,5.5549205986353085,0.377809978717726,0.6221900212822741,14.041996958104946,18.01995421747791,0.40832793529485195,0.5916720647051482,11.076821843058465,13.333714652285437,1.4633486439795558,1.37325456967279,1.844516110587016,1.785571874958948,0.48888988278860346,0.33510019500913835,-0.5429230216522147,0.001517995249186333,0.17060169824583377,0.1912759268964459,4.722966879142464,0.999423777562484,1.6931163007690782,1.71437411885714,2.200205858664981,0.8447762214533433
0,85.65576537671988,91.28571428571429,17.970552761407273,12.772875223042565,12.90263728004813,0.19686051538317825,0.1399219508001533,90.0,19.273799999999998,0.2141533333333333,27.75,73.0,107.60000000000001,0.0,16.666666666666664,66.0,133.0,4.2,46.875,9.123542315912383,23.664293365486422,0.3855404501204656,678.2767085390464,2.593761561692271,3.5383770139696966,245.51813806403243,0.5,0.47058823529411764,0.6875,0.1,45.09803921568628,44.117144630807445,46.00219097416064,73.52941176470588,0.6017341904619525,0.3982658095380476,7.093130479555554,5.770615218501403,0.3422517903524372,0.6577482096475629,13.84415346697416,19.192138892543273,0.3759615354064905,0.6240384645935093,10.999388283380412,14.171065508116744,1.2503022646553457,2.693141870215201,1.723860440300145,2.4615305974973754,-1.3601580921126502,-2.0479396188098704,-0.22609309396007224,0.009657555884364255,0.7977081046815214,0.43442165959458556,4.558518613048906,0.9807998261632512,1.3162434414240938,1.629038695130431,2.6693601579664215,1.0271080805292878
0,109.41677157931444,71.37037037037037,5.812466421234057,3.373034018590094,3.398860049657134,0.08144088914028,0.047260985211174125,70.0,4.4478,0.06354,7.0,67.0,75.0,0.0,0.0,64.0,90.0,1.9285714285714286,0.0,2.403356989416605,7.868084195753492,0.30545644017303836,59.4069363408463,3.27378921666706,2.480807266031922,103.03379678354521,0.5370370370370371,0.5306122448979592,0.7307692307692307,0.18181818181818182,54.62184873949577,54.71350692634469,54.5164447727644,55.10204081632652,0.7479270315091211,0.2520729684908789,2.082435704058702,1.2089410496539776,0.4005443680713335,0.5994556319286665,4.979598339433997,6.091826432965082,0.4302933760560496,0.5697066239439502,3.8166043863382195,4.3915764681325165,1.5580231786011574,0.9548018427540859,1.6935448101673767,1.4717400513864898,0.7020087564366895,1.0402398434385685,-0.7323044938215666,0.0003345717273764441,0.051458391014553136,0.5728318248870208,3.937499252396477,0.8236092482072166,1.6737384981605743,1.5560184293551582,1.675778586086935,0.8525759262464397
0,90.72627129032584,86.31818181818181,11.245200996627203,8.263115015987728,8.360376938097069,0.13027615688562322,0.09572855732055294,84.0,10.3782,0.12355,13.5,76.6,93.0,0.0,2.272727272727273,70.0,114.0,3.3846153846153846,23.4375,5.911679226204063,14.817457005679877,0.3989671928143931,275.1911158520286,2.506471755097965,3.146604519181078,148.5581498684603,0.5227272727272727,0.525,0.8095238095238095,0.2,50.87719298245613,50.846085958221735,50.93679710492477,60.0,0.6764305177111718,0.3235694822888284,4.862392121462145,3.3629635456727462,0.4047048859965418,0.5952951140034579,9.42633564286301,11.432463796717748,0.44202161106279825,0.5579783889372021,7.4999553596927075,8.426468782140766,1.3932741518910106,1.3055226338501225,1.6795956885735832,1.4977541858247223,0.18505321746959424,0.41060091668463095,-0.6392863655014478,0.0005723379328996296,0.10136901918366108,0.5296673581790006,4.436260027531527,0.9137799200757191,1.721125346218041,1.570533648050241,1.8849201696521132,1.1167019219939927
0,81.47239834501903,96.125,14.493477755042004,10.719022152110513,10.858866412157624,0.15077740187299873,0.11151128376707946,92.0,13.343399999999999,0.14503695652173912,23.25,83.0,108.0,0.0,7.5,76.0,128.0,4.0,0.0,7.678378076035492,18.798221841425857,0.40846299936276753,453.4570263781083,2.448202166561167,3.3635062456993103,184.08738975870494,0.525,0.5405405405405405,0.8,0.1,50.508474576271176,50.526529603162295,50.53605187311495,51.35135135135135,0.6210667261771926,0.3789332738228074,6.0513156464219895,4.726743621475348,0.48622508300300316,0.5137749169969968,13.107970341233601,13.474207135590591,0.5055063952398748,0.49449360476012527,10.208753780929662,10.096939219287156,1.0771933879480462,2.1642692281919227,1.4609263950308664,1.826414336375714,-0.6717591350046881,-0.8893877928980802,-0.33112639749991546,0.0031598562575070777,0.3880419001336473,0.4072604169993923,4.415311532225103,1.2343134702711775,1.5667682643868945,1.6861323883869752,1.900355129975823,1.1974338213496565
0,108.80527037861644,71.45283018867924,4.7618921487150665,3.562626515972126,3.595497435676286,0.06664385631948733,0.04985983769382696,71.0,4.4478,0.06264507042253521,6.0,68.0,75.6,0.0,0.0,65.0,85.0,2.0384615384615383,0.0,2.5424006185055443,6.238110863820975,0.40755938360291827,49.824958654684195,2.453630170798108,2.4044170569519787,61.22406809701837,0.5660377358490566,0.5853658536585367,0.7916666666666666,0.14285714285714285,47.79411764705881,47.82152671574266,47.77494638143702,53.65853658536586,0.5499999999999998,0.44999999999999984,1.8864844365675972,1.706389376983563,0.4692143709004175,0.5307856290995827,4.273057543266945,4.544777924305072,0.4807321624868983,0.5192678375131017,3.3028657479136436,3.432693627978841,1.28987560254044,1.2643245394579772,1.506987129921686,1.7704748517441562,-0.08345445129988072,-0.7008731493016045,-0.2915980323094663,0.0012571562035005636,0.13928040493003904,0.2295344700870099,3.7627321919514802,1.1662422274852866,1.714039790979026,1.7390143977122532,2.464078337806954,0.7565177958857056
0,92.02963232173826,85.08888888888889,15.364987090226544,7.3639169419048125,7.447774473551109,0.18057571665191813,0.08654381362907197,85.0,22.238999999999997,0.261635294117647,25.0,69.8,102.2,0.0,4.444444444444445,68.0,115.0,3.4615384615384617,0.0,5.266371834996058,21.138449282172246,0.24913709443377255,349.7313114266492,4.013854308900706,3.250704626374739,339.3866229389044,0.6,0.6,0.9166666666666666,0.2222222222222222,51.327433628318566,51.77387871720733,50.921409818464234,40.0,0.33277451802179375,0.6672254819782062,3.038512487967572,4.302514137917125,0.5978584893182544,0.4021415106817454,16.344525779829734,13.404869081324499,0.5823614887310036,0.41763851126899654,11.755340937358083,9.95495210923755,1.4175682429251875,0.47074258503955013,1.6268662930363949,1.4115017985503455,-0.18577194829269494,-1.139581516903125,-0.9574994940556635,0.0011661553580355544,0.04993173362002268,0.41986665207366736,4.417085807960779,0.8207154258056673,1.0744270415015815,1.5563892611743615,1.7261307689176364,0.6102058995921861
0,99.99660941637987,78.24489795918367,14.336042300563198,9.341885962338297,9.440157732484368,0.18322015459770388,0.11939290875184574,74.0,5.9304,0.08014054054054054,8.0,70.6,80.0,2.0408163265306123,2.0408163265306123,64.0,127.0,1.96,0.0,6.675199548110317,19.296486423643874,0.34592823799939215,404.6619443696806,2.890772970091436,3.314062473910141,223.1270454848243,0.4489795918367347,0.4418604651162791,0.6842105263157895,0.09090909090909091,48.730964467005066,47.66183205424032,49.95812481277546,60.46511627906976,0.8555741227023155,0.1444258772976844,6.174759879903678,2.536960822079434,0.2479120760650047,0.7520879239349955,9.60786914122171,16.7344924889592,0.31286425814734187,0.6871357418526584,8.07585317503075,11.968279096758186,1.4214727630695951,1.1377628780129196,1.4656480645753176,1.0802260139637756,0.4421464567709119,1.35028112983229,-0.838754285325844,0.006434328186178214,0.20369299204434507,0.5542513329692023,4.18126431436975,0.6025610856409035,1.2677896906467172,1.3672512792064346,1.5022231506851624,0.9166873214881973
0,102.02506056859198,76.52,7.385147809168433,3.7742413753208304,3.7693942926328807,0.09651264779362824,0.04932359350915879,75.0,6.6716999999999995,0.088956,9.0,70.0,81.2,0.0,0.0,66.0,97.0,2.1739130434782608,0.0,2.665364265286579,9.702088806586156,0.2747206625729117,81.24033190970523,3.640061110199881,2.616741799020742,141.26478461023936,0.44,0.4186046511627907,0.6666666666666666,0.0,60.0,59.48267946675616,60.55326659432346,44.18604651162791,0.664756446991404,0.33524355300859593,2.1984843263788196,1.5612494995995994,0.6683251055113884,0.3316748944886115,7.931569487185805,5.587551581938858,0.6680692201743168,0.33193077982568314,5.81992817238281,4.1023305986248495,1.0399460273425871,1.1830637501119567,1.1954317273719086,1.529437151430524,-0.636720677981641,-1.4205481678684482,-0.2176775773689224,0.0004177061545397672,0.09260545963210104,0.505239515873007,4.416174630069642,0.9428000203129899,1.7396416517140525,1.7430411573155942,1.7051569984654624,0.5643856189774724
1,108.43437176518582,71.54716981132076,10.670891458931719,5.995190379988586,6.039931227321154,0.1491448437034233,0.08379353642916537,71.0,11.8608,0.16705352112676056,13.0,62.4,79.0,0.0,1.8867924528301887,57.0,100.0,3.533333333333333,0.0,4.270876328739175,14.023970805888188,0.30454115940871607,188.16457656365162,3.283628399988878,2.9815079774539703,184.19803527531744,0.4716981132075472,0.4358974358974359,0.6470588235294118,0.07692307692307693,55.67567567567566,54.70151148002592,56.72315225858243,61.53846153846154,0.7003745318352059,0.2996254681647939,3.5823642100341124,2.343116744516024,0.4859011592215302,0.5140988407784699,9.775634751376469,10.055283306405887,0.5041802071658429,0.4958197928341569,7.361941595993974,7.300647863392545,1.4500673877768455,1.642288512954658,1.9837948711902123,1.8025504394923355,0.4387455383096679,0.46474029617475665,-0.6103608959498827,0.0029828015556714435,0.26794100431111056,0.3777000338660459,4.381051058615007,0.7072252724992317,1.2926390484565191,1.4216806227516277,2.168712829987222,0.9726657375673357
1,108.5738113157781,71.62962962962963,14.131853884040135,9.1104335791443,9.185280393494352,0.1972906178226906,0.12718805927450674,66.0,11.119499999999999,0.1684772727272727,19.5,59.0,83.0,0.0,1.8518518518518516,57.0,115.0,2.7,0.0,6.494974053339695,18.92630463817208,0.3431718012316104,386.18297101697163,2.9139923397292455,3.293763229336767,220.60442694006213,0.46296296296296297,0.425531914893617,0.75,0.16666666666666666,45.76271186440679,45.33369453106027,46.32615495748807,59.57446808510638,0.6253694021368492,0.37463059786315067,5.143143307056792,3.9807227793648035,0.3887478909800753,0.6112521090199243,11.800484782822279,14.797079649284647,0.41373804780010737,0.5862619521998927,9.10228993678358,10.835121595843484,1.1363703128475842,2.0763426069872675,1.826195468416612,1.7549032707922294,0.49513387491918603,0.40941411568671837,-0.5343354691968808,0.007715485941924511,0.5411870132623178,0.2976162196678045,4.558050641365494,0.7795042037243186,1.0718074874944792,1.5347059936974994,2.311933393558595,0.6394319446848298
1,98.91811697069328,79.52083333333333,17.645431671264046,12.885750005005116,13.009069632066387,0.22189696626163852,0.1620424417710887,74.5,20.0151,0.26865906040268456,26.5,62.8,93.80000000000001,0.0,14.583333333333334,59.0,120.0,4.0,0.0,9.198801353762127,23.253897647097432,0.39558105455539955,672.0117547114334,2.5279269279564396,3.5343469796847584,235.13661616816196,0.4791666666666667,0.47619047619047616,0.7,0.1,53.98936170212766,54.36318193075369,53.66116935369472,59.523809523809526,0.6851614556637621,0.3148385443362378,7.623618905571769,5.167835304954139,0.42651139269569943,0.5734886073043006,15.18661820057214,17.60995126091309,0.46158385181010153,0.5384161481898982,12.015675960746867,12.977228231615273,1.307768463373049,1.4971637216664813,1.7672265757671222,1.7666369267879374,0.34916989564002776,-0.05851472950246972,-0.5003938440202975,0.0024861731455828756,0.23352650718838375,0.41092084763266623,4.8553885422075345,0.9416000119142477,1.2254455959337418,1.562507901201943,1.9108351927895169,0.6981203125901446
1,107.09827440341715,72.98113207547169,19.43776119392922,13.920792417763492,14.056272921598225,0.266339540661388,0.190745087420234,63.0,7.412999999999999,0.11766666666666666,24.0,59.0,88.2,0.0,9.433962264150944,56.0,122.0,2.0384615384615383,0.0,9.939285901070948,25.8101133907396,0.3850926863667736,805.9256317961136,2.5967774393086516,3.613265078329295,268.09248063628286,0.5283018867924528,0.5238095238095238,0.7727272727272727,0.15384615384615385,49.354005167958654,48.551828446536796,50.073921732070104,61.904761904761905,0.6520789917634218,0.34792100823657846,8.026304792832812,5.862810675743149,0.5108545400898378,0.48914545991016223,18.447543420445356,18.05131837272887,0.5290936856097241,0.47090631439027575,14.225565487471275,13.4205559499826,1.4623688751774548,0.9205419600934166,1.8560416133891247,1.625449416731608,1.117219569927241,0.7162577048049963,-0.7504961279919453,0.006566363431948881,0.21048586849921572,0.2736997072851586,4.462003776642428,0.5923199925922819,0.8025357562479807,1.5239824796238535,1.9243738252182412,0.8645917667265206
1,117.75711496318738,66.52631578947368,11.395652778829263,4.756574397610112,4.799587374039456,0.1712954136058196,0.07149914047040516,63.0,10.3782,0.16473333333333331,13.0,57.2,74.80000000000001,0.0,1.7543859649122806,54.0,92.0,2.28,0.0,3.3938207790806336,15.828212318351214,0.21441592460481726,168.76043815586615,4.66383269732911,2.9342407542399433,295.2805366023752,0.631578947368421,0.5909090909090909,0.8076923076923077,0.36363636363636365,49.640287769784166,49.42983633100565,49.831482294563486,65.9090909090909,0.6574585635359117,0.3425414364640884,2.7518588758741376,1.9863168290719748,0.5106655212699712,0.48933447873002883,11.310977421393462,11.072221771963044,0.5171176708909694,0.4828823291090309,8.231371012777883,7.954229991425536,1.655921102511696,1.1614948266123475,2.074996140906709,1.7510445504401475,1.069703314389293,1.03494692317049,-0.778909197909567,0.0057158522086507325,0.2424612848772205,0.443232969201667,4.5322064091223275,0.5401612917119636,1.2659544419448485,1.1674291614152155,1.5557604277435368,0.7163198263009332
1,116.95730641213927,66.8103448275862,7.715231907582545,4.797660248459568,4.839141786833974,0.11547960016510649,0.07181014049307224,64.5,6.6716999999999995,0.10343720930232557,7.75,60.0,70.6,0.0,0.0,57.0,85.0,2.0714285714285716,0.0,3.4217899725934893,10.421715568392335,0.3283326962953508,112.03209003868606,3.045691188490265,2.756312548083512,126.96530910241738,0.43103448275862066,0.41304347826086957,0.5789473684210527,0.07692307692307693,51.74418604651163,51.91538887994126,51.58106155159889,52.17391304347826,0.5678353658536586,0.43216463414634154,2.5791056035544013,2.25,0.47400207880744877,0.5259979211925512,7.175122816920487,7.558423641909614,0.4831371444164382,0.5168628555835619,5.391390041175777,5.576390766014259,1.4040635373744912,1.3861950550946336,1.7238858503087853,1.6798708910703875,0.0686314360881557,0.052109888555433415,-0.531752356262296,0.0005855763817457201,0.1216605334915825,0.46758209845065624,4.177223349345432,0.8249975143143292,1.5556114118317421,1.616220130431483,1.9121211229207724,0.9089970509680715
1,126.13854119590013,62.096774193548384,8.358189617727064,8.3509104245006,8.420148876583188,0.13459941722053972,0.1344821938491006,62.0,5.9304,0.0956516129032258,6.0,56.0,65.80000000000001,0.0,4.838709677419355,49.0,90.0,2.3846153846153846,0.0,5.9539443692322624,10.118897000302566,0.5883985546106688,189.2726315858319,1.6995283080898784,2.9840579304202963,68.78940759463987,0.6129032258064516,0.6037735849056604,0.78125,0.1875,50.44642857142857,49.96803151541123,50.93842518092033,54.71698113207547,0.6725434884814293,0.3274565115185708,4.882792916627395,3.4071004290060674,0.6553583313775929,0.3446416686224071,8.191672625484824,5.940418848836738,0.6597779820008838,0.34022201799911633,6.743336231784089,4.842360448838361,0.6564635534662123,1.8946945479283444,1.4177293761082808,1.0938475285594034,0.5856901609582721,0.602293117341456,-0.6709414575045932,0.007734009850896107,0.4740558216355069,0.5691560177376882,4.245613094388534,0.6584506311721707,1.2853237278921206,1.732381263880779,1.7213941442064653,0.8643188192497077
1,114.04634564570411,68.69642857142857,15.788280628200312,7.142701297001143,7.206198229947115,0.2298268040497056,0.10397485641592515,61.0,10.3782,0.1701344262295082,18.5,56.0,80.0,0.0,1.7857142857142856,53.0,105.0,2.5454545454545454,0.0,5.095551634970101,21.847628137142372,0.2332313422301131,349.740055544978,4.287588410880772,3.2507154846386186,374.6945488241772,0.5535714285714286,0.5476190476190477,0.782608695652174,0.3076923076923077,52.65957446808511,53.07100695923328,52.38341800597467,54.761904761904766,0.7352102637205987,0.2647897362794013,4.370566536714874,2.622904807580639,0.5229046197042235,0.4770953802957763,15.7984883601524,15.090613663896653,0.5338643086934836,0.46613569130651655,11.590817191158756,10.830656729455836,1.5371271196410963,0.5535946229514779,1.5313087312027545,1.4506673650002713,1.0,0.8216306134935358,-0.6456686225970647,0.0011399441220754092,0.05120282211802333,0.29586616522282405,4.519159109782289,0.5354084392975845,0.9451560632459217,1.2812553893518248,1.4827055145014048,0.6222165987918861
1,117.3216697604425,66.56140350877193,9.108507686811366,4.840306956027833,4.883579696221886,0.13684368427734525,0.07271942448434013,63.0,4.4478,0.0706,7.0,61.0,71.80000000000001,0.0,1.7543859649122806,56.0,93.0,2.375,0.0,3.4532123196634354,12.51523746603191,0.2759206390638557,135.77263565185356,3.624230515675821,2.8397823586771,181.43242214128875,0.543859649122807,0.5111111111111111,0.7391304347826086,0.14285714285714285,51.40845070422535,51.38364891290826,51.41425451864327,48.888888888888886,0.6471036585365854,0.3528963414634146,2.778161589645537,2.0516069090083775,0.26571779774045834,0.7342822022595417,6.451332361561609,10.724340520136272,0.292704836384049,0.707295163615951,4.96678321741114,7.720769731734253,1.6322508598717385,0.6720947469524052,1.5354143457933938,1.4548407794164753,1.0,1.2156016120006843,-0.6198842376648189,0.0022541632810651516,0.07861288232460364,0.4183690309279169,4.1137640337780645,0.6709539139753622,1.0289757363029448,1.3716766544099348,1.6078820280568198,0.613988422543657
1,134.67714461708366,57.8955223880597,6.452939965060345,3.647331943082546,3.6747738303142827,0.11145835979867057,0.06299851512929379,56.0,2.9652,0.05295,3.5,54.0,59.0,0.0,1.4925373134328357,53.0,85.0,1.5227272727272727,0.0,2.5984574947420924,8.813900866520367,0.2948135603172419,71.95047266392424,3.391974232541827,2.5640037612526196,119.58609850966066,0.582089552238806,0.5800000000000001,0.8275862068965517,0.3076923076923077,48.3050847457627,48.03589184408556,48.59571661096489,60.0,0.6685649202733487,0.33143507972665154,2.124943438161264,1.4961489025032026,0.5567968594571806,0.44320314054281906,6.576828997607476,5.867722626460619,0.5657366505197512,0.4342633494802487,4.8872315414330005,4.281858846315432,1.6694211344364807,0.5192594356612459,1.5573322076006706,1.4845509134882429,1.0,1.0799120524769137,-0.6401636428999022,0.0005444288441148659,0.03054888574247243,0.43247582941818896,3.433648552251624,0.5777537227385172,1.018757328036154,1.4086847081553961,1.588286364505631,0.8148478017032829
1,113.70172574057155,68.74545454545455,9.845506931286307,6.533390022429794,6.575397254661027,0.14321684242812666,0.09503741106417314,65.0,5.9304,0.09123692307692308,8.0,62.0,74.4,0.0,3.6363636363636362,57.0,99.0,2.037037037037037,0.0,4.64950798776622,12.824113870978417,0.3625597865508882,187.32003769656734,2.758165789739734,2.9795543464699197,141.48412865063787,0.6,0.5581395348837209,0.75,0.45454545454545453,56.71641791044776,56.161345554877705,57.25085539665052,51.162790697674424,0.6342733188720174,0.36572668112798273,3.713819170367437,2.8200762735570195,0.5429483910126748,0.4570516089873253,9.449452382819384,8.669818120390424,0.5536135494020312,0.44638645059796894,7.1792967331542865,6.446649378914964,1.28760757274671,0.5754391459797259,1.4885520325704042,1.4831229132560841,0.8133920644689336,0.004742330165458775,-0.5094347410186644,0.0005095913625851057,0.04047090195692858,0.5389777172190668,4.279010795650283,0.84834201780933,1.3569497315346044,1.5444732099043759,1.8279756020032774,0.6306937869299629
1,115.23498776727311,67.66666666666667,11.466306749611684,6.49862622845343,6.557413767993852,0.16945280910756183,0.09603881125793245,63.0,8.8956,0.1412,13.0,58.0,78.60000000000001,0.0,3.508771929824561,55.0,102.0,2.0357142857142856,0.0,4.636791742394482,15.663957926465388,0.296016611137616,228.17547905097985,3.3781887987870625,3.0652390809596493,211.66322884742877,0.5964912280701754,0.5750000000000001,0.8260869565217391,0.2727272727272727,50.25380710659899,50.10722055416317,50.38379413998643,60.0,0.6397463002114164,0.3602536997885835,3.708712101868444,2.783065673938462,0.4622203129423185,0.5377796870576815,10.64942162234823,11.486922870444454,0.47652299885678134,0.5234770011432187,7.973854975640185,8.357477238287712,1.4822336802815081,0.7938925035489461,1.9331747572621045,1.5807143062239568,0.8594848189819935,0.47966656949168307,-0.9439649567952084,0.0016072634724457202,0.08644170821366644,0.33824216136087726,4.374373735046018,0.618396274372282,0.9632252773557962,1.4202350377339497,1.8780695806410268,0.8186512300582093
1,123.26813379638703,63.278688524590166,7.087856158108233,4.713455915426246,4.752489683533295,0.11201016208409383,0.07448725669455984,61.0,4.4478,0.07291475409836065,7.0,58.0,67.0,0.0,1.639344262295082,56.0,83.0,1.4878048780487805,0.0,3.3605176827455017,9.480659766309504,0.3544603187520183,100.09090566034493,2.821190263329881,2.7073647288900986,106.98698009062288,0.5409836065573771,0.5192307692307693,0.7037037037037037,0.15384615384615385,48.53801169590643,48.27532133365657,48.78870837878716,53.84615384615385,0.5423855963990997,0.4576144036009003,2.4753017278844607,2.273651583999565,0.542131660095552,0.4578683399044478,6.980570965051265,6.415180325322353,0.5421600118749978,0.45783998812500226,5.237150448582919,4.812693119856426,1.3348594926009956,0.9835481607938084,1.857532598827527,1.5175735381164879,0.9525661148768014,0.5784250258159807,-0.8456455659849568,0.002003801549372928,0.1314050079879268,0.47005248059349514,3.9305198216883808,0.8114894658411381,1.314388656423061,1.5183585867980736,2.003375037868235,0.680576415785905
1,124.66310268455263,62.78688524590164,13.667619585597633,8.285529554590944,8.341222254595843,0.21768271402648973,0.13196274225327614,57.0,4.4478,0.07803157894736842,10.0,54.0,67.0,0.0,4.918032786885246,52.0,103.0,2.1785714285714284,0.0,5.898134819608863,18.293568843092075,0.3224157555148725,338.9713610907247,3.101585399891761,3.237133117174701,226.95626414259675,0.5081967213114754,0.5531914893617021,0.7692307692307693,0.3333333333333333,56.22317596566524,55.722693443428895,56.67803854089454,57.446808510638306,0.7834425831512503,0.21655741684874968,5.229479670781658,2.7494221272657104,0.4144015459903644,0.5855984540096355,11.776307099354408,13.999044685929253,0.4492591711430749,0.5507408288569251,9.111225672910964,10.087927789009553,1.3337376556987623,0.9955327623596284,1.5664677883624143,1.2512452399618281,1.0,1.2817284188546179,-0.8166370413098616,0.006751142019229442,0.22013823729513204,0.36598042682427323,4.024920232832869,0.489601331456235,0.9118540297318943,1.4313567441556412,1.6711824652982652,0.680576415785905
1,107.16826276718415,72.36538461538461,9.777984166430947,7.044675363733389,7.110114309221483,0.13511963238225067,0.09734868958653634,69.5,6.6716999999999995,0.0959956834532374,9.25,64.2,76.80000000000001,0.0,3.8461538461538463,61.0,98.0,2.08,0.0,5.027610043062015,12.831181383110225,0.39182752491363687,202.664696216276,2.5521433192331524,3.013748212015398,130.98805537909425,0.5,0.45238095238095233,0.631578947368421,0.15384615384615385,46.76616915422886,47.029479112387214,46.53741344175215,45.23809523809524,0.3871987356775977,0.6128012643224023,3.130495168499705,3.9382737335030433,0.5786373732972216,0.42136262670277846,9.760450978639286,8.329034300556932,0.5531289135720951,0.44687108642790485,7.247979142713525,6.514706915121121,1.0265695225841232,1.2567085055281078,1.4946122534359194,1.4220411044021093,0.5954324918431162,0.05813109528694582,-0.5577470023594002,0.0031181832541458507,0.2042884132053734,0.39746230097681323,4.288402757271467,0.8540586416609155,1.3306056011097007,1.7137521821464887,2.0431886733464384,0.8769907258678603
1,113.02467137555395,68.98214285714286,6.218713902198959,5.682509048906925,5.733826617257247,0.09014961908442705,0.08237652258317053,67.0,2.9652,0.044256716417910444,6.0,65.0,71.0,0.0,1.7857142857142856,60.0,90.0,1.4736842105263157,0.0,4.0544276832105215,7.81343916913875,0.5189043640634663,99.52258928629769,1.9271373864909176,2.704891776526006,60.230282959679265,0.6071428571428571,0.5957446808510638,0.8571428571428571,0.14285714285714285,48.125000000000014,48.056485890860365,48.21335432679877,51.06382978723404,0.5602477477477479,0.4397522522522522,3.0352863065883855,2.6891414022846547,0.6090506483335657,0.39094935166643435,6.097740528014044,4.885426501631833,0.5986945726611521,0.4013054273388478,4.816399200125959,3.94327741760126,1.0046215523355067,0.7432960015750076,0.9857959031439731,0.7312328891278987,0.7067547501049596,1.1609138812224717,-0.8424786538292522,0.0026688715549500436,0.08253189852478729,0.44998434334042825,3.7930140314442546,0.8912897920705111,1.0872829917057438,1.7365512404678454,2.2699643839107964,0.7259193652572005
1,111.91331508413447,69.58181818181818,4.649535656189962,2.718251071716682,2.742182841560327,0.06682112910646666,0.03906553669830612,70.0,4.4478,0.06354,6.0,65.8,73.2,0.0,0.0,60.0,78.0,1.896551724137931,0.0,1.939016082520703,6.302764692362835,0.3076453234673731,38.39391308059702,3.2504963466673775,2.291232487322886,81.94845442571813,0.4727272727272727,0.4418604651162791,0.6842105263157895,0.15384615384615385,47.6190476190476,47.714145109541164,47.52704750099705,51.162790697674424,0.5162907268170426,0.4837092731829574,1.3940574688351604,1.3493534440542743,0.48807272540698243,0.5119272745930177,4.403250194549227,4.509570987521737,0.4905151092739222,0.5094848907260782,3.265884910878895,3.3284369611334768,1.5065704357793694,1.102071792515634,1.9497703377087952,1.468232650580532,0.9929504238442037,1.3970520974385305,-0.9369385827660878,0.0009917978999367614,0.11009362733742004,0.1440615950568236,3.974846141955728,0.9454376988585131,1.959347814954536,1.4895365844168205,1.9524423719709232,0.8409250492399505
1,108.01745295199974,72.32075471698113,6.188617295877415,3.613542902428627,3.6483327459317225,0.08557180189968772,0.049965503216466804,71.0,4.4478,0.06264507042253521,7.0,68.0,76.6,0.0,0.0,63.0,92.0,2.2083333333333335,0.0,2.579760824673259,8.36663406698654,0.3083391485773952,67.80786817260876,3.243182076015214,2.5382502006678656,108.53807057051608,0.4339622641509434,0.39534883720930236,0.5882352941176471,0.18181818181818182,51.19999999999997,51.30961475743913,51.09589912444332,58.139534883720934,0.6244477172312225,0.37555228276877745,2.038838577498974,1.5811388300841895,0.48852816294599244,0.5114718370540077,5.847841287437075,5.983587376131981,0.5003312958798324,0.49966870412016784,4.379161476136256,4.376260840478205,1.387258882841285,1.697935148588158,1.7808910028838976,1.6544193050054439,0.0741587744469765,0.39717746098362117,-0.5744855879705509,0.0008233040934299353,0.18742483486983902,0.5691053471407415,4.152751710122367,0.8956551296039359,1.6590419922686979,1.495873910593373,1.6335777559623468,0.7565177958857056
1,105.56727786287387,74.01923076923077,6.926760792964938,3.71272322231138,3.7454285861724355,0.09358055630921713,0.05015890037936912,73.0,5.9304,0.08123835616438356,7.0,69.0,77.80000000000001,0.0,0.0,63.0,93.0,1.793103448275862,0.0,2.648417951732472,9.462246966078343,0.2798931333357617,78.72826392271864,3.5727921870823223,2.6031007846592855,135.22656813059243,0.40384615384615385,0.3695652173913043,0.6470588235294118,0.18181818181818182,53.383458646616546,53.58280469581853,53.18639756460656,47.82608695652174,0.6614509246088194,0.3385490753911807,2.1563858652847823,1.5427248620541512,0.4243471395180589,0.5756528604819412,6.16389055003435,7.179176201644312,0.4416086197635507,0.5583913802364494,4.617550579733955,5.19232948368341,1.7167411891013606,0.4158763403459744,1.7167411891013606,1.6610915417338648,0.5174417672434508,0.2812965542289172,-0.6338129678673233,0.00016683486417191028,0.008109761877208278,0.5335755225221974,4.195846815111719,0.9291666345560933,1.536319544983344,1.3945238530163437,1.6821987510693175,0.6577430444008953
1,113.48421895471408,68.7090909090909,6.643495084368388,2.741991706500681,2.761419337498785,0.09669019043140022,0.03990726220098901,66.0,5.9304,0.08985454545454545,9.5,63.0,75.0,0.0,0.0,61.0,84.0,2.037037037037037,0.0,1.9526183392450545,9.224962336985339,0.21166680880814936,56.58897640283143,4.724406276216789,2.4597019483286,174.3298798508681,0.45454545454545453,0.40909090909090906,0.6111111111111112,0.2727272727272727,55.00000000000001,55.088582707350106,54.87617074266994,47.72727272727273,0.5886699507389161,0.41133004926108374,1.501571503835923,1.2551779547590882,0.5451506171217448,0.45484938287825494,6.811187812803293,6.22154729127071,0.5470249793873271,0.4529750206126729,4.9318858666037775,4.487935070588205,1.6941175409066305,0.7169936069890444,1.774022666269679,1.4993534589007398,0.7511281212623278,1.1055452391198104,-0.8830845975355205,0.00048031103027444346,0.040159834627778675,0.41504032495673604,4.0530206221435385,0.7407455515290482,1.4552509302607488,1.3162250199336314,1.7132950418757942,0.525578155774969
1,103.11331819204153,75.74509803921569,8.059387414077827,5.151698748956503,5.195170441705194,0.10640143880868992,0.0680136257304638,75.0,7.412999999999999,0.09884,11.0,68.0,80.0,0.0,1.9607843137254901,64.0,102.0,2.4285714285714284,0.0,3.6735402487496542,10.802692408159464,0.3400578402079619,124.67135668328783,2.940676207872318,2.8027367954909455,127.0688821825498,0.5098039215686274,0.47500000000000003,0.631578947368421,0.15384615384615385,55.3191489361702,55.34718083323141,55.27810969980985,52.5,0.7882441597588545,0.2117558402411455,3.267027607436934,1.6933242273042426,0.3642886847457509,0.6357113152542491,6.5201089260965,8.613149415698235,0.40836691106302225,0.5916330889369776,5.15680568743473,6.206999669563321,1.3788912993151252,2.033186154073123,1.836859546986085,1.597952789195623,-0.03312219723527221,0.660892859215851,-0.6175036320761162,0.0013217875346111284,0.26649803027668995,0.496671040924193,4.257935822610365,0.8414302339191649,1.4418686886510539,1.4882188113098407,1.590401512944441,0.6673441578789994
1,95.98550106132504,81.02127659574468,6.667537716761738,4.542073841606793,4.58041409009218,0.0822936640461664,0.056060260124873765,80.0,4.4478,0.0555975,6.5,76.2,84.80000000000001,0.0,0.0,70.0,100.0,2.238095238095238,15.625,3.2388418637465906,8.790929119416713,0.3684299827412885,89.44877457169505,2.7142199246639485,2.658544505168187,95.44205988891737,0.5531914893617021,0.5526315789473684,0.8095238095238095,0.3,44.68085106382978,44.245080721140255,45.10887035030431,52.63157894736842,0.5468914646996839,0.45310853530031614,2.401388487243717,2.185812841434,0.4710454087798524,0.5289545912201474,6.033456222834358,6.39357808975147,0.480151649858867,0.519848350141133,4.591800336443502,4.777845673916636,1.438275368224871,0.5469520455784069,1.3655138192445744,1.29092238609524,1.0,0.9492646320885241,-0.6363765502887064,0.0015163426284722096,0.0513912991979166,0.4704807109567142,4.064395234288111,0.995469646304819,1.5947227650534284,1.58012561146194,2.411086937238922,0.9454619322004489
1,106.59735995555714,73.34615384615384,4.9264576438901555,2.7617840213152363,2.78863238671491,0.06716722534931518,0.0376541083136844,73.0,4.4478,0.06092876712328767,5.25,70.0,76.0,0.0,0.0,64.0,85.0,1.6774193548387097,0.0,1.9718608708825396,6.558963332722633,0.30063605647022545,40.631358656204064,3.3262809915118696,2.3158314547353296,87.26782023063456,0.4423076923076923,0.40476190476190477,0.47058823529411764,0.08333333333333333,48.54368932038834,48.34176666802872,48.72706605421009,57.14285714285714,0.5449871465295631,0.45501285347043696,1.4560219778561037,1.3304134695650067,0.43665736866573673,0.5633426313342632,4.3341665865538666,4.922905646059043,0.44564058836069065,0.5543594116393092,3.233032632065442,3.6058979464205585,1.439955746564382,0.554810291495893,1.4355560332847235,1.4238088208171642,1.0534431759609015,0.7717035780873855,-0.5211733860161212,0.0011233140953256472,0.049623380566817255,0.1524633047830184,4.087969113680241,0.9034017359806579,1.7871727336501737,1.578633267697277,1.7974319667552348,0.8769907258678603
1,106.13850095574124,73.65384615384616,8.150266723374259,3.4012685061577237,3.4293999932532646,0.11065636282388026,0.04617910243347301,73.0,8.1543,0.11170273972602739,10.5,66.2,79.80000000000001,0.0,0.0,62.0,93.0,2.3636363636363638,15.625,2.4249519906304835,11.260776973158455,0.21534499763299422,85.78697904889972,4.643711305076465,2.6403914845663308,209.16718933680264,0.5,0.5217391304347826,0.7916666666666666,0.25,54.3103448275862,54.830476929262126,53.81900426482763,52.17391304347826,0.6830508474576273,0.31694915254237294,2.0074859899884734,1.3674794331177342,0.46071245636181135,0.5392875436381886,7.643342737104451,8.26948667345007,0.47059750619672924,0.5294024938032706,5.587964217711463,5.926820810618805,1.7405556100055994,0.6026178607136501,2.0730133081007214,1.9731605457247277,0.9454631771690902,0.11929432799473716,-0.6656983121239438,0.001643045473865822,0.06886854554725014,0.45174971836343136,4.472087737738646,0.7426835535279451,1.4329576496199599,1.2957513643929572,1.5051648214557023,0.7673668851343778
1,105.22549164948009,74.21153846153847,4.150769068647015,2.7224556389190906,2.73925709121373,0.05593158630983279,0.03668507209738085,73.5,3.7064999999999997,0.05042857142857143,5.25,71.0,77.0,0.0,0.0,68.0,85.0,1.4054054054054055,0.0,1.9369472646105657,5.384400124979788,0.3597331586901404,32.764609414696466,2.779838265789003,2.222375105081566,59.87104602295161,0.5769230769230769,0.5555555555555556,0.88,0.2,55.55555555555557,55.32481364832774,55.788603523248014,46.666666666666664,0.6031746031746033,0.3968253968253968,1.5099668870541498,1.224744871391589,0.5797064433045058,0.4202935566954939,4.099599102688964,3.4907093696144607,0.5824133358110621,0.41758666418893814,3.089232332050162,2.6158222324074494,1.394185092590972,0.9796609211588931,1.5787136710649454,1.5997632255032808,0.31406803267687877,0.02647322966249188,-0.4785134284896914,0.00020058827487949736,0.0567376152800256,0.17910190231042034,3.7025490371424254,1.0855830560570772,2.0169128729777226,1.5942930199631669,2.2667031249122602,1.2058622480683079
1,101.71878696587632,76.34,9.052251946677272,4.9836467264321165,4.994554858172299,0.1185780972842189,0.06528224687492948,75.0,8.8956,0.118608,11.75,68.0,84.2,0.0,0.0,64.0,99.0,2.9411764705882355,0.0,3.5316836092218478,11.99489687410476,0.2944321778077342,133.08471562872674,3.396367908717523,2.83109829091159,162.95633124634216,0.4,0.38095238095238093,0.625,0.0,40.60606060606061,40.60096324544836,40.59565582505758,61.904761904761905,0.360723089564503,0.6392769104354974,2.1384379033927234,2.846781808756454,0.5205108222366962,0.47948917776330396,8.653890592273214,8.305885180844562,0.507571937283902,0.49242806271609774,6.303282440510718,6.208538286265132,1.5546490561088184,1.1381650993015038,1.6640711423805161,1.776400212393074,-0.3049481501105902,-0.4375563130479927,-0.4013068753544678,0.00018721940376213104,0.056792184353316566,0.3621157797906438,4.294177320667444,0.8260688617824716,1.6744782810622583,1.528617678346011,1.7284605422355206,0.7901398665684615
1,97.70982318408578,80.19148936170212,7.5574273799451905,4.565941971483707,4.616343576828275,0.09424226236599204,0.05693798690892392,79.0,8.8956,0.11260253164556962,14.0,73.0,87.80000000000001,0.0,0.0,70.0,96.0,2.238095238095238,0.0,3.264247847462235,10.107740851484714,0.3229453441104749,103.65424622128887,3.0964992009852748,2.722557207734671,125.19444588155454,0.46808510638297873,0.4722222222222222,0.5882352941176471,0.09090909090909091,49.6551724137931,49.666192979399405,49.64520625466025,55.55555555555556,0.565172054223149,0.4348279457768508,2.454021642574128,2.152517905461725,0.4665695512478199,0.5334304487521799,6.904183016200616,7.382322263324727,0.47588213769659604,0.524117862303404,5.181214401248767,5.4374633485161645,1.4452301859740377,1.4842764769715995,1.7368081533211521,1.994597729654891,-0.5207636957955426,-1.1257219438694985,-0.32631970503250696,0.0007980756807616458,0.1568322252704307,0.4131723218848249,4.021842042798749,1.002743535830238,1.5215004803033991,1.5107006869942516,2.0721793999200253,0.7090964491503368
1,99.00642255804807,78.79591836734694,8.575594225855758,5.0641715347461655,5.115639696415894,0.10883297515331057,0.0642694652169288,77.0,4.4478,0.057763636363636364,5.0,72.6,83.80000000000001,0.0,0.0,70.0,108.0,1.6896551724137931,0.0,3.61730351944277,11.673747218159004,0.30986652801731923,132.66156261621686,3.2271959362584246,2.8297152184948065,150.69387833340332,0.4897959183673469,0.46153846153846156,0.7222222222222222,0.0,47.74193548387098,47.7359031652769,47.76786660024957,48.717948717948715,0.38992688870836717,0.6100731112916328,2.259730731464128,2.826545895988186,0.689145360984302,0.31085463901569793,9.690935508611263,6.508620674260602,0.6629122945436002,0.33708770545639966,7.036356088586835,5.017544458375042,1.378764013127049,1.293025924140133,1.7007383352944028,1.5830818084074554,0.5947337524976666,0.6523954744568652,-0.5909931693482398,0.0008937807876123065,0.13107650578957422,0.5543594360703468,3.9538102933957364,0.8294447537405037,1.1691486942594767,1.7926304574439973,1.9718127380190114,0.8021014063021725
1,103.62956033521013,75.17647058823529,9.46933130131783,4.98196748283246,5.032182145238499,0.12596137098779586,0.06627030297977451,73.0,7.412999999999999,0.10154794520547944,11.5,68.0,82.0,0.0,1.9607843137254901,62.0,104.0,2.8333333333333335,0.0,3.5582901190640106,12.908223925000648,0.2756607058986879,144.29713823112297,3.627647969411805,2.8662278280077724,187.30596924096594,0.47058823529411764,0.4418604651162791,0.7368421052631579,0.1,49.056603773584904,49.04979324271314,49.07855540339903,48.837209302325576,0.5962933118452859,0.4037066881547139,2.747912008810192,2.261027398763488,0.5440321563257474,0.4559678436742527,9.520916929774856,8.716328683240764,0.5477234578525417,0.45227654214745816,7.007099242619471,6.3673632930847,1.3734378102376632,1.5817323138144967,1.7025157546704452,1.6022419069580573,-0.08618816995971379,0.15315678591741477,-0.5633949542767879,0.000499083655773503,0.1437359405274777,0.3919401758216683,4.588421175007882,0.7459327456442529,1.5811622637511202,1.4643187375831306,1.9355214594142323,0.6673441578789994
1,97.82223919157079,79.8125,12.434776645069503,6.537941637171735,6.6077492140838485,0.15579986399460616,0.08191626170301312,77.5,14.0847,0.18173806451612903,18.75,67.4,92.2,0.0,2.083333333333333,63.0,107.0,3.4285714285714284,0.0,4.672384277658769,17.135459121276767,0.2726734220886536,251.5267456772921,3.6673908015680117,3.1075542817890587,251.36970064806036,0.3958333333333333,0.36585365853658536,0.6666666666666666,0.2222222222222222,51.18483412322274,51.197384376719256,51.161557422210755,60.97560975609756,0.6381284221005477,0.3618715778994524,3.732932173063911,2.8110805596858084,0.4084105756393094,0.5915894243606907,10.95075934526731,13.179712783630297,0.4243121925239974,0.5756878074760026,8.180889708541944,9.529087127632724,1.6669897837218615,0.995348184022965,1.91630809241772,2.007380327144722,0.3429281178600192,-0.3422029426732003,-0.40850213403825275,0.0006525158318295396,0.08686337312865569,0.46648029259202195,4.886842188131012,0.7841721307985963,1.8944104510480206,1.3974530325015453,1.9603349623144757,0.6981203125901446
1,107.64931797901157,72.16981132075472,7.4025355558770025,2.5305821768609205,2.515937135179447,0.10257108090496239,0.03506427591467419,74.0,8.8956,0.12021081081081081,10.0,64.4,78.6,0.0,0.0,61.0,88.0,2.789473684210526,23.4375,1.7790362093244423,10.159836862266701,0.17510480074062254,56.78340021260109,5.710865697401808,2.4611915046566764,232.08585531166932,0.5283018867924528,0.5135135135135135,0.7894736842105263,0.15384615384615385,37.894736842105246,37.637946755480364,38.13245921656892,59.45945945945946,0.3723723723723723,0.6276276276276277,1.1025816407458469,1.4314396975923007,0.49575857095227294,0.5042414290477272,7.153553839573516,7.214495999873886,0.4919757647643013,0.5080242352356986,5.118057190486777,5.200863973420159,1.45673678837023,1.1583799705904019,1.639542022430562,1.664932021136441,0.1342010505165554,0.09575262024135078,-0.47808145914942035,0.0002029294089313647,0.0707468489981352,0.43060114243734704,4.185493926981039,0.6712581502988432,1.3946855958767053,1.4163268442228123,1.534212947829489,0.5403698542040754
1,102.07685121464716,76.76,7.683961563290284,3.976974544878587,4.01813491103339,0.10010372020961807,0.051810507359022755,76.5,8.1543,0.10659215686274509,10.75,71.0,83.0,0.0,0.0,61.0,92.0,2.380952380952381,23.4375,2.8412504433141144,10.568431846810588,0.26884314385502384,94.33436714732701,3.719641072711377,2.6816400502425943,157.24309268619047,0.26,0.2608695652173913,0.5,0.0,50.33112582781456,50.3513199987769,50.307228944182846,54.347826086956516,0.5161290322580646,0.48387096774193544,2.041241452319315,1.976423537605237,0.39134392655954264,0.6086560734404572,6.611345451181453,8.245111462304349,0.399755253316241,0.600244746683759,4.892675921289103,5.995336230180196,1.6722593241560701,1.549111628836699,1.9283293436848914,1.958194538418979,-0.24978854113093973,-0.02341879737187824,-0.48072108285926773,0.0002573048462445854,0.12274023609508578,0.31756518144871926,4.566370130156181,0.9468176751732499,1.706132073770772,1.401565925207287,2.08088383346047,0.7901398665684615
1,108.01684799197844,72.22641509433963,7.300267406677549,3.968626966596886,4.007299147244349,0.10107475772045718,0.054947029579319476,71.0,4.4478,0.06264507042253521,7.0,66.0,75.0,0.0,1.8867924528301887,63.0,94.0,2.0384615384615383,0.0,2.833588401259548,10.030825415780612,0.2824880589389696,89.29421229727053,3.5399726408118575,2.6577934204873324,142.03539014649436,0.4339622641509434,0.39534883720930236,0.7058823529411765,0.18181818181818182,50.43478260869565,50.327592439181444,50.55721455953911,60.46511627906976,0.7789987789987791,0.22100122100122088,2.5009801999984553,1.3321072794341933,0.4164677256036697,0.5835322743963303,6.4733240384384345,7.662475736682328,0.44326013202572173,0.5567398679742784,4.9070778507890624,5.499456528565662,1.6757286525708655,1.7646501208208782,2.1476714060743514,1.7743561843437217,0.5387608781590689,1.2703442177485034,-0.7115519769760202,0.0015798143947539757,0.2415131829171937,0.46848686128052597,3.926336615782745,0.7105334508129978,1.273830190001479,1.3853075852155659,1.6872636100778582,0.6484438250448905
1,110.420886612553,70.55555555555556,6.834061933851878,2.210609068295475,2.221905718470224,0.09686072032231008,0.03133146710969964,70.0,8.8956,0.12708,11.5,63.0,78.4,0.0,0.0,61.0,86.0,2.8421052631578947,0.0,1.5711246006874633,9.549105384430566,0.16453107777500486,47.13279428391178,6.077879106629893,2.380293297782331,232.1532324121502,0.5370370370370371,0.5,0.75,0.18181818181818182,43.20987654320987,42.624966359205956,43.78254429312483,62.5,0.498069498069498,0.5019305019305019,1.1137255565823274,1.118033988749895,0.39325787800248224,0.6067421219975178,5.988270390856559,7.438147038675119,0.39604431004770024,0.6039556899522998,4.306957562444397,5.318647918830097,1.7724913637918547,0.6208077772030465,1.8325066021674914,1.7342542055296317,1.0495715069712142,0.8052139059044392,-0.6582654087880804,0.0013111318347175747,0.06272592862934447,0.43090538463630823,4.242873789353386,0.5543055668721133,1.4256320884161524,1.2934863443250428,1.8545901226213686,0.8525759262464397
1,114.8416633953028,68.10714285714286,11.151320462256837,5.531726674375733,5.582681252438649,0.1637320256650191,0.08122094750001076,64.0,4.4478,0.069496875,9.25,61.0,73.0,0.0,0.0,59.0,102.0,2.3333333333333335,0.0,3.947551770802377,15.364592642524142,0.2569252477203236,190.5455266275734,3.8921826829901573,2.9869688674060306,239.2072056577218,0.6607142857142857,0.627906976744186,0.8518518518518519,0.45454545454545453,50.276243093922645,50.28086720547793,50.2744834188534,58.139534883720934,0.5816993464052288,0.41830065359477125,3.010783089964273,2.5531389540169016,0.4930667117886321,0.5069332882113677,10.788818623230762,10.939474383430683,0.4985551668407523,0.5014448331592479,7.920335286456809,7.943255576407404,1.6401810745403924,0.6051851345654553,1.9015396761899659,1.6984081819532988,0.9926363218521708,0.60663144621698,-0.8356518239373524,0.0008431648268762779,0.04597579308383504,0.38836135206430766,4.021403699408588,0.6185667607390949,1.0305237348073308,1.5269728679310035,1.5886933575591236,0.6222165987918861
1,99.62022166290991,78.51020408163265,8.803698202506508,5.244044240850758,5.298869142033719,0.11213444552191809,0.06679442885409076,77.0,7.412999999999999,0.09627272727272726,10.0,71.6,84.20000000000002,0.0,0.0,64.0,100.0,2.130434782608696,0.0,3.7468663029521854,12.003545575494714,0.3121466302924219,141.29526723779853,3.2036226021827963,2.8570977251229364,153.81931964794467,0.5510204081632653,0.5454545454545455,0.7916666666666666,0.08333333333333333,48.86363636363637,48.882509858083225,48.85330770056581,47.72727272727273,0.3575757575757576,0.6424242424242422,2.2408205184138867,3.003544005961071,0.6111193148257531,0.38888068517424684,9.383666207264712,7.485446873341432,0.5886033369214208,0.4113966630785789,6.82182043464596,5.703209249596305,1.2599435572276023,2.125499892158886,1.692865310010299,1.8351587229074169,-0.7944100248578927,-0.7294265163076874,-0.4330541424998195,0.0010286444089668315,0.2823871304791859,0.3528173137946662,4.515234273075877,0.9052916370654341,1.7687495820850585,1.5571971784117111,2.353090541315358,0.8021014063021725
1,95.66361698503307,81.61702127659575,11.55432008702591,7.413266603807692,7.494023383565731,0.14156752974197542,0.09082990885791488,79.0,8.8956,0.11260253164556962,13.0,73.0,89.4,0.0,2.127659574468085,64.0,116.0,2.611111111111111,0.0,5.299074752889883,15.588984095212009,0.33992431581974847,259.5181476532679,2.9418313238005296,3.1211378426668848,183.44064687009177,0.3829787234042553,0.37209302325581395,0.4375,0.2,48.69565217391304,48.43676810431658,48.97593954276151,60.46511627906976,0.6582278481012658,0.3417721518987342,4.2998707990925595,3.0983866769659336,0.2509916152204509,0.749008384779549,7.809935023171612,13.491528455093972,0.29318486155612117,0.7068151384438788,6.304124600412473,9.78829249804608,1.326930877846709,1.5477816501618298,1.7893248768624606,1.6648892505302277,0.5740066458965041,0.568718170659344,-0.5803961116344947,0.0022221668226590106,0.23150413643838721,0.40165369651322136,4.493433469104718,0.8673294405421066,1.3981076629487819,1.6198371180445332,1.9129051482338806,0.9454619322004489
1,99.52309595562879,78.75,14.250793184345168,8.174948760331318,8.263301166057188,0.18096245313454182,0.10380887314706436,73.0,8.1543,0.11170273972602739,16.5,68.0,93.2,0.0,4.166666666666666,63.0,110.0,2.526315789473684,0.0,5.843036289505742,19.395429905072742,0.3012584056194359,356.031043033548,3.319409454962223,3.2584579765593893,257.525493639822,0.4583333333333333,0.43902439024390244,0.6666666666666666,0.09090909090909091,50.209205020920486,50.042103133237084,50.39564698825184,58.536585365853654,0.6972301814708692,0.3027698185291308,4.878969955440078,3.2151137649761528,0.4929736432781434,0.5070263567218566,13.617935113300184,13.810667777212515,0.5099689556194642,0.4900310443805356,10.228697487367125,10.02675174157302,1.7210093316345358,1.926932389219763,2.1771510358913817,2.1507836470318447,-0.1108538959148504,0.1460880089282357,-0.5136836087280745,0.0014566501940642574,0.26276618733831975,0.417982423959983,4.551428324170391,0.7605798921013177,1.4876801121462118,1.4832507357687763,1.8235446102425088,0.8144736980218353
1,112.8529040420621,69.21428571428571,6.035393444173629,3.492849839314596,3.495066267681947,0.08719866689208547,0.050464290764091174,68.0,5.1891,0.07631029411764706,6.5,64.0,72.0,0.0,0.0,62.0,94.0,1.5555555555555556,0.0,2.4713850585742616,7.517252883140947,0.3287617294499794,58.364591435253,3.041716569848342,2.473119559676673,91.46141061756016,0.4107142857142857,0.38636363636363635,0.5294117647058824,0.08333333333333333,60.68376068376068,59.485586354265465,62.01254285385048,56.81818181818182,0.8152011922503727,0.18479880774962745,2.2505143445032325,1.0715167512214394,0.5327453806620474,0.46725461933795254,5.486798442373281,5.1384952818759135,0.5607241758024566,0.43927582419754335,4.193433674332091,3.7116224154680104,1.6855058914117704,0.6561769341612447,1.8548264828880416,1.7378424226004636,0.7534434896390092,0.40692244873951466,-0.678281274755737,0.0001985432698928828,0.03077246702761119,0.4504968429687928,3.9386905843059217,0.8085602130503687,1.458371819712223,1.4238972549224165,1.6263296027715153,0.6222165987918861
1,112.17466281300831,69.05454545454545,10.885631341220853,6.553201083779166,6.592485610671006,0.1576381579165737,0.09489890984935602,66.0,8.8956,0.13478181818181817,13.0,60.0,75.2,0.0,1.8181818181818181,56.0,101.0,3.235294117647059,0.0,4.661591280180206,14.403495819553646,0.3236430473949112,210.93661689720543,3.0898238292132816,3.0311220862685913,178.01705842892292,0.5272727272727272,0.47619047619047616,0.6,0.16666666666666666,40.88050314465409,40.7705631792916,41.139595757518954,69.04761904761905,0.7507546356188011,0.24924536438119874,4.0527186309793075,2.3351295871277133,0.2826136872406151,0.7173863127593849,7.65710330829101,12.19956805588043,0.3272712891419998,0.6727287108580001,6.1260003010009685,8.783003214696482,1.2852601677786077,1.6801438715049604,1.7328063825207782,1.669203750891936,0.3262862234440611,0.37727765698501514,-0.5378554674439108,0.0017785638845702527,0.23764203052738017,0.4538979433371151,4.499008349652281,0.568368943267744,1.2130331331586668,1.5383235297073259,1.559618824434448,0.6306937869299629
1,101.24816399888445,77.10204081632654,12.062761047191172,7.60208304786699,7.645051243166281,0.1564519034707166,0.09859768908032887,75.0,14.825999999999999,0.19768,21.0,65.0,89.4,0.0,2.0408163265306123,62.0,103.0,3.0625,0.0,5.405867576561523,15.849441227817547,0.3410762246352016,269.17159711026096,2.9318959451646065,3.1369993413344406,185.87564987585205,0.5714285714285714,0.5365853658536586,0.6818181818181818,0.4444444444444444,57.627118644067785,57.52540579652462,57.7355326234493,43.90243902439025,0.638788752703677,0.36121124729632303,4.341781181702647,3.26490037644108,0.5456010529046192,0.4543989470953808,11.707160048857899,10.683968870437058,0.5553975523216705,0.4446024476783296,8.829174939918273,7.899581169041597,1.3884070449879156,0.756719964097089,0.6316870808908266,1.0100470629393712,0.910578664118949,-0.5989046847151569,0.0,0.005887909850308939,0.16800733189120506,0.3968126019212761,4.425635099084792,0.8144157150628982,0.9609156934681385,1.5763265141700142,1.944459321793974,0.687515491116148
1,109.55892026226037,70.81481481481481,7.702178261054427,4.499475860460629,4.542494088043805,0.10876506958601964,0.06353862355252982,68.0,5.9304,0.08721176470588235,9.0,65.0,77.0,0.0,0.0,61.0,96.0,1.8620689655172413,0.0,3.2120283731555763,10.1069749874147,0.3178031386399218,101.98831967036436,3.1466020262720646,2.7155205464965024,127.2105118995207,0.4074074074074074,0.411764705882353,0.47619047619047616,0.07142857142857142,50.27624309392266,50.21750221478367,50.34173651436995,52.94117647058824,0.5917986952469712,0.40820130475302885,2.4709854776524347,2.052203318762169,0.415968477682169,0.5840315223178308,6.5185560071480335,7.723947888088104,0.4320983137795885,0.5679016862204115,4.929368197299475,5.6511463190860285,1.3941013132742843,0.9642170590899521,1.5525945549490556,1.3952760841452259,0.4137906810787726,0.6482126833530986,-0.6631566972609987,9.68273022507248e-05,0.043344465667274644,0.5825331010354198,4.2493277809385095,0.9209856763583243,1.4699886842023686,1.6560960009737455,2.0362051105945884,0.7460039354656347
1,113.78035236570551,68.41071428571429,4.587638670539406,2.4753328518146254,2.4867324713041374,0.06706023637436877,0.036183408953698516,67.5,5.1891,0.07687555555555556,6.25,64.0,72.0,0.0,0.0,61.0,81.0,1.5555555555555556,0.0,1.7583853934559373,6.166243501724442,0.2851631455949136,34.0631346261874,3.506764515147208,2.2392547209464357,86.49425561441733,0.6607142857142857,0.6315789473684211,0.9166666666666666,0.3333333333333333,42.69662921348314,42.71497381335218,42.69283460019223,63.1578947368421,0.5578635014836795,0.44213649851632036,1.319371343004213,1.1745763617703318,0.4512281465822249,0.5487718534177755,4.142082663460459,4.5678999695285825,0.4593156067506385,0.5406843932493615,3.073889192186377,3.3350666980773305,1.5670773117458192,0.4951133208835623,1.63125637056842,1.456987489378569,1.0,0.8376317463525638,-0.8519777671884422,0.000501944347736653,0.029726209366145437,0.27700340722727246,3.9124775302994843,0.8782928113134095,1.6960757864291947,1.3762879108610717,1.7489453493364653,0.8296221317225149
1,133.46800395857537,58.40909090909091,5.349269605720514,2.436895881744138,2.452726112841665,0.09158282593451464,0.04172117462908252,57.0,4.4478,0.07803157894736842,6.0,54.0,62.0,0.0,0.0,50.0,77.0,1.6923076923076923,0.0,1.7343392667836626,7.377248679346731,0.23509296516452005,40.195584933957655,4.253636425488919,2.3111484629437506,125.5205348094371,0.6060606060606061,0.5319148936170213,0.8,0.3076923076923077,45.83333333333333,45.41604593263044,46.260776986937024,57.446808510638306,0.6113989637305699,0.38860103626943,1.357847561400027,1.0825317547305482,0.49999086040922935,0.5000091395907705,5.216454890748978,5.216550244146426,0.5058398930697507,0.4941601069302494,3.811505714754927,3.7672451108007388,1.5413708613679573,0.8229429150226089,1.4286094555590134,1.3706023529064821,1.0,1.2661955549153943,-0.570487395411792,0.00167974327735654,0.0990452090847599,0.37286603375739125,3.9255426383458607,0.6654519068392769,1.2401236215081506,1.3352451314893476,1.708537043279221,0.5494903744871321
1,122.89722209680426,63.75,13.129892147181186,4.333550624712852,4.368609133661636,0.20595909250480293,0.06797726470137806,58.0,5.1891,0.08946724137931034,8.5,55.8,69.60000000000002,0.0,0.0,51.0,96.0,1.935483870967742,0.0,3.089073142765631,18.398996872511006,0.16789356312032727,178.55507968698723,5.956154491064748,2.9587423198456624,438.3490714131707,0.55,0.5111111111111111,0.8260869565217391,0.5,52.85714285714285,53.391628157514006,52.32177505574186,48.888888888888886,0.5180505415162454,0.4819494584837545,2.224472041197408,2.1455647918117196,0.5850100312911438,0.4149899687088564,14.072647266371579,11.852581357280542,0.5831725568279678,0.41682744317203213,10.074415043708106,8.517251114849682,1.8364193729813238,0.35543382725023065,1.744942073955936,1.776386041725877,1.0,0.4819924455220148,-0.41153355319834556,0.0014219570399442688,0.039114663660466197,0.44121527969721086,4.153551271007887,0.5163001295273946,1.1126071205558812,1.1727822057650275,1.396376449779998,0.5906890595608518
1,128.1922094672804,60.888888888888886,5.573876600573692,2.113703369795268,2.129406806468698,0.09154176898752416,0.03471410643824345,60.0,5.9304,0.09884,8.5,55.0,65.6,0.0,0.0,53.0,74.0,2.032258064516129,0.0,1.5057179927588065,7.78557324247277,0.1933984750852561,36.828506508792614,5.170671586521914,2.273154217409116,161.02656939855697,0.6349206349206349,0.5681818181818182,0.88,0.2727272727272727,47.19101123595505,47.02566677680065,47.366097990235396,56.81818181818182,0.5054151624548736,0.4945848375451263,1.0712333936199698,1.0596937386208012,0.4858234371327158,0.514176562867284,5.426625181652808,5.582731397063592,0.4865307981451106,0.5134692018548893,3.9112531141409734,4.018074207343098,1.6397181372664953,0.5633526899157353,1.07636544735076,1.3580417923086276,1.003357950920944,-0.5221255040812425,0.0,0.0006930634578157883,0.041701932572504784,0.419004324475579,4.170828139804293,0.6889033985358252,1.5815256029400362,1.357720818941141,1.9436400667646068,0.5692647546190397
1,136.03152170383882,57.26865671641791,5.395233838143595,2.614064523559687,2.6287366566958377,0.09420919133584073,0.04564564062509748,56.0,2.9652,0.05295,5.5,54.0,60.0,0.0,0.0,50.0,75.0,1.8108108108108107,0.0,1.85879751590328,7.172378057032896,0.2591605602943128,41.883708594065176,3.8586118152559985,2.329015239287357,110.70169085739998,0.6268656716417911,0.6170212765957447,0.8275862068965517,0.26666666666666666,56.17977528089888,55.26765801335415,57.1586919331854,57.446808510638306,0.8514412416851441,0.14855875831485585,1.718675697694639,0.7179029289427752,0.497295008579477,0.5027049914205228,5.057899821461622,5.085337391861574,0.5196691652113208,0.4803308347886792,3.7773136458194507,3.631531426578193,1.4935590572326698,0.5895489248833203,1.5908641592936128,1.4654622361660616,1.0109838267891602,0.6674917768297437,-0.7127082551331425,0.0007839744849402792,0.047525883699638644,0.49438252718528686,3.953804959522373,0.627546459549966,1.3606107602475337,1.3747272901109082,1.8489472233030861,0.6337705124358866
1,124.64181769251621,62.54838709677419,12.662941179801376,5.582466697279036,5.6268287858964,0.202450323142776,0.0892503700957453,58.0,8.8956,0.15337241379310346,15.75,52.0,73.0,0.0,1.6129032258064515,50.0,101.0,2.8181818181818183,0.0,3.9787687910830125,17.59254996319892,0.22616214246405572,219.90108314992358,4.421606503656691,3.0491974784989178,311.1493333327425,0.6129032258064516,0.5416666666666666,0.7692307692307693,0.4,47.76119402985075,47.61155268822931,47.95662248456062,47.91666666666667,0.4460810099947396,0.5539189900052605,2.6583202716502514,2.962262648719725,0.5112078981706141,0.48879210182938604,12.57846282697103,12.299597030722516,0.5080366923558545,0.4919633076441456,9.09077537276548,8.945811509252756,1.4256265555064844,0.40903393060372517,1.2268218035745635,1.353789964931867,1.0,0.6109352785016817,-0.18959014923309359,0.0009547810554914176,0.03964965417576199,0.4228617977577236,4.4065310365449175,0.7277820581287071,1.0075795611448135,1.4460918031219563,1.7841741942189213,0.5762125461664717
1,137.27882717775407,56.83582089552239,3.319351045215758,1.862712261648849,1.87394103740086,0.058402447486726836,0.03277356132627964,56.0,2.9652,0.05295,5.5,54.0,60.0,0.0,0.0,52.0,64.0,1.675,0.0,1.3250764150899017,4.498134811587664,0.2945835264155193,18.725061989712064,3.394622951826127,1.9793933740767033,61.077886687294296,0.6119402985074627,0.6326530612244898,0.9032258064516129,0.2857142857142857,45.78313253012048,45.688270274978535,45.88521745979283,65.3061224489796,0.681222707423581,0.3187772925764193,1.0954451150103321,0.7493587001820032,0.36993097023425187,0.6300690297657482,2.7358533432140204,3.5704794170589262,0.3948620213742222,0.6051379786257778,2.0838538235172988,2.579715268123588,1.3211059000654166,1.1793973882352211,0.1417085118301955,0.7314072059478061,0.8870985560401214,-1.6724337958009778,0.0,0.005105132390240069,0.2711422238482304,0.43929820454670443,3.4909550321958265,0.8682191616325,1.830085833645897,1.6584227320996094,2.2643652964159213,0.5432318678021885
1,150.22566493608542,51.93333333333333,3.5767013843474253,1.5289989659374652,1.5393758141127063,0.06887101510296711,0.029441571872993556,51.0,1.4826,0.029070588235294115,2.0,50.0,52.0,0.0,0.0,48.0,67.0,1.1538461538461537,0.0,1.088503076953657,4.973839374086692,0.2188456431915899,17.00870660310115,4.569430697437021,1.9376413996770727,90.91045728029067,0.72,0.7916666666666667,0.9473684210526315,0.4166666666666667,50.68493150684932,50.711039829705015,50.656120077475855,50.0,0.5606936416184971,0.4393063583815028,0.815097271277383,0.7214900866993803,0.40752803229559914,0.5924719677044011,3.175195714712849,3.8284736243683675,0.414528907502419,0.5854710924975811,2.3180003654415886,2.7547920282382248,1.5822843898774923,0.9753047813893561,0.6069796084881363,1.0946319991828144,1.0302648613905947,-0.9062665565291792,0.0,0.0025148634785760954,0.12469686199483658,0.6450075936723603,2.789762019161682,0.6592794561094949,0.9612135133149552,1.4201018184375023,1.5447827807391854,0.6644073269862273
1,138.22622804653,56.51470588235294,7.51415112147625,3.1075257710774413,3.13065408898454,0.13295921838677727,0.05498614427095134,54.0,7.412999999999999,0.13727777777777778,11.0,50.0,63.2,0.0,0.0,48.0,79.0,1.9428571428571428,0.0,2.2137067358703613,10.418905684287253,0.21247017709439978,72.45895492038663,4.706542883689994,2.5670621758515546,196.1481056168776,0.4852941176470588,0.45283018867924524,0.625,0.0625,48.854961832061065,48.59077622035636,49.101550235609466,62.264150943396224,0.6306027820710973,0.3693972179289026,1.758098145983065,1.3455876265060036,0.4273202851051477,0.5726797148948524,6.810811511545213,7.884569881247579,0.4361025447301783,0.5638974552698215,4.973834664356359,5.655839825918098,1.5086582162221167,1.024695719309907,2.089040509889898,1.662851865583872,0.8538247079575632,0.5881408227869214,-0.9159172681945501,0.001144441223166948,0.10984223712327992,0.4173306104746066,4.205768032747378,0.6524907666299186,1.077583724614087,1.385903243397442,1.6015850032008365,0.5371290742279711
1,142.39278275001243,54.871428571428574,6.173626535211967,2.9266392656602465,2.947754791705114,0.11251076736913243,0.05333630528409718,54.0,4.4478,0.08236666666666667,6.75,49.8,59.0,0.0,0.0,48.0,74.0,1.627906976744186,0.0,2.0843774024898245,8.489738553045212,0.24551726645836136,55.59305557602636,4.073033291813696,2.451990654900476,138.31595106138957,0.5428571428571428,0.5,0.75,0.2727272727272727,48.6725663716814,48.370831711144874,48.95404548976331,62.5,0.6311336717428087,0.3688663282571912,1.6560939160637989,1.2660731323547578,0.4629667116089924,0.5370332883910078,5.776558804417239,6.221497334096664,0.4725292923533926,0.5274707076466074,4.2491927868545725,4.489430378936869,1.5111113767573603,0.9135351204782225,0.7633435051480362,1.2201110653871474,1.0,-1.4799252098923699,0.0,0.004652619974401171,0.1751948940590692,0.3721312709784077,3.896389613598943,0.5681102438012319,1.06571322872471,1.3883404694108787,1.6024849858579682,0.7880506736072099
1,128.33983882384643,61.03174603174603,10.887945767280161,3.1237900883588563,3.142188319502741,0.17839807108937586,0.05118303655828555,61.0,7.412999999999999,0.12152459016393441,11.0,47.0,67.0,0.0,0.0,46.0,87.0,2.739130434782609,23.4375,2.2218626684855503,15.256059645149236,0.14563804286069412,106.49015586708514,6.866337808154435,2.734279572664211,419.0130365797893,0.6031746031746031,0.6046511627906977,0.8846153846153846,0.26666666666666666,55.85585585585582,57.18991457010745,54.646952182634855,51.162790697674424,0.6016528925619835,0.39834710743801655,1.7273119455897505,1.4054927378202897,0.5395825328754016,0.4604174671245984,11.206534157115914,10.351857228620643,0.5408774410777674,0.4591225589222327,8.017793161836453,7.387027748621601,1.7936639433438901,0.9278786568899648,0.9016451731170267,1.3655845015620092,1.0786937748791336,-1.1331801208525807,0.0,0.0007576227591171632,0.07636236536922238,0.19162898579535792,4.118908393029698,0.4026033376165101,0.7545813623946288,1.216763786175803,1.3285550050107064,0.47438729551586645
1,132.34939069827294,58.93846153846154,1.793015294456198,1.0458250331675945,1.0522085616183026,0.030421820448878326,0.017744355822472888,59.0,1.4826,0.025128813559322033,2.0,57.8,60.2,0.0,0.0,55.0,63.0,1.015625,0.0,0.7440238091428449,2.4126608836889076,0.30838308614895277,5.639401158328126,3.242719996378102,1.4582030991505228,31.294334768069128,0.6461538461538462,0.8055555555555556,1.0,0.4166666666666667,45.652173913043484,45.582986485674574,45.72337210840285,58.333333333333336,0.5285714285714286,0.47142857142857153,0.5418955560352877,0.511766315719159,0.43775697699190463,0.5622430230080955,1.596293779930636,1.809082283324145,0.44566924348502523,0.5543307565149747,1.1920160706752303,1.3294140569706008,1.3299326485879206,0.5720612007362456,0.7708270906818999,1.0568576910500227,1.0259112856604498,-0.8006375905110916,0.0,0.00016403414303316644,0.025329275446533576,0.578077005176568,2.8411549590903658,0.9527445497445035,1.8626713480847699,1.5227734007370068,2.1441082768775415,0.5559108750487805
1,127.79336154731155,61.15873015873016,14.309038818518951,6.9803872708906995,7.037201892133722,0.23396559708452996,0.11413558216094317,56.0,2.9652,0.05295,6.0,54.0,62.0,0.0,3.1746031746031744,50.0,113.0,1.8,0.0,4.976053178506557,19.75619844628972,0.2518730104900863,308.8433578123418,3.970254685304442,3.1967083755141914,313.74855778074436,0.5396825396825397,0.5609756097560976,0.8260869565217391,0.26666666666666666,50.867052023121374,50.57906646972181,51.16261492200239,58.536585365853654,0.6825554452168155,0.3174445547831844,4.111160340373784,2.803686098282922,0.6009949073344885,0.39900509266551165,15.31576788481855,12.479368219086291,0.605860659379721,0.39413934062027906,11.213259678744214,9.044204964651284,1.4961725918268,0.49934872017715515,1.074663497483316,1.3243378575718936,1.0,-0.9317696244597764,0.0,0.0008744424353726985,0.044773707648757745,0.2807306985338138,3.8679650768048504,0.3922244542681586,0.6961711005572303,1.3710584704207074,1.3525467388317443,0.47438729551586645
1,131.71181245197275,59.215384615384615,12.271018075750057,4.344536799245692,4.377068671923044,0.20722685760554785,0.07336837930656533,54.0,2.9652,0.054911111111111105,9.0,52.0,63.2,0.0,1.5384615384615385,49.0,100.0,1.8055555555555556,0.0,3.09505493963598,17.19863816591025,0.17995930315987155,167.22927034593334,5.556811914922919,2.930282404818157,382.27838992311257,0.5692307692307692,0.5217391304347826,0.8333333333333334,0.38461538461538464,47.183098591549296,46.647704552375416,47.79445362961847,63.04347826086957,0.6481788079470198,0.3518211920529802,2.4928469095164494,1.8365772167311323,0.43017983034248464,0.5698201696575156,11.280259267053415,12.982638623560323,0.43702382412323965,0.5629761758767604,8.168798407545328,9.271513401354067,1.749530757679851,0.6309694678605442,1.7819496994789352,1.5209903927144448,1.0,1.3036259131197179,-0.9135846820755633,0.0011870404183006139,0.0475327683536555,0.23066590105044993,4.058896229867834,0.4048041006320473,0.7556472837662861,1.2250138614858677,1.4640643952310726,0.4632590625406503
1,129.96863400361906,60.1875,10.515106291305871,5.0015870497146215,5.039221487512214,0.1747058158472419,0.08310009636078292,56.0,4.4478,0.079425,7.0,53.6,63.0,0.0,3.125,50.0,91.0,2.0,0.0,3.5632676857208474,14.526826006913051,0.2452887977060614,162.6181652951702,4.07682702737341,2.9181391668828915,236.89342754773628,0.578125,0.6086956521739131,0.8928571428571429,0.3,53.57142857142857,54.107310641324716,53.00732678420235,50.0,0.5298223350253807,0.4701776649746194,2.594970321167842,2.444546267022349,0.4800983406083871,0.519901659391613,10.065511220451361,10.474452620833853,0.48292296108806054,0.5170770389119396,7.350115206470378,7.605588871274402,1.7198863817534575,0.9808050424312289,0.7390813393222286,1.229483860537843,0.9349305354749557,-0.9707475257870699,0.0,0.004060719767700809,0.16370631366211208,0.2783434662667017,4.063963627454154,0.44261304917106725,0.9429902008820323,1.3580111738679408,1.459323783982824,0.46875
1,133.78250406023375,58.31818181818182,8.62404347589493,3.863039855227606,3.8919912838862003,0.1478791554713082,0.06624074576384048,55.0,4.4478,0.0808690909090909,8.75,52.0,64.0,0.0,0.0,49.0,86.0,2.129032258064516,0.0,2.7520534291548695,11.957627514236707,0.23015045634079878,103.38362467985301,4.3449837810411935,2.721421864634852,207.82279043636166,0.48484848484848486,0.45833333333333337,0.7727272727272727,0.1111111111111111,52.02702702702703,52.0802616717375,51.92977556219828,58.333333333333336,0.6072164948453608,0.3927835051546392,2.145125287716314,1.7252717177302825,0.515591556860216,0.4844084431397839,8.58613908538006,8.322443834339744,0.520203216576444,0.4797967834235558,6.257928846411212,6.009976450691783,1.5814914211294213,0.23094987331070005,1.6270129764077073,1.6885025356517107,0.5496981754120611,-0.4503018245879389,-0.23375365674576187,9.050648542182717e-05,0.005725354271285573,0.3348285257857633,4.355243460943846,0.5552246287966279,1.0559646884489793,1.3931659024408143,1.663513732938486,0.45790864540594345
1,135.398739144434,57.515151515151516,7.121457120221361,2.2395054399095833,2.25501577685083,0.12381880135263694,0.038937660440999076,55.5,5.1891,0.09349729729729729,8.0,52.0,61.0,0.0,0.0,49.0,78.0,2.129032258064516,0.0,1.5945369474938724,10.008926304515922,0.15931148846349624,50.13857090218976,6.277011216483201,2.4071420610810335,251.3045707136008,0.6363636363636364,0.5957446808510638,0.7857142857142857,0.4166666666666667,46.93877551020409,46.768008393633224,47.150927828814716,57.446808510638306,0.5521472392638038,0.44785276073619623,1.1858541225631423,1.0680004681646913,0.48908681775652535,0.5109131822434746,6.99971681591181,7.154199484657398,0.49065027611002937,0.5093497238899707,5.0200739786859,5.11484091963143,1.8047149346034361,0.45161839293014205,1.4281476366981964,1.6539568331632675,1.0,-0.8348727149156678,0.0,0.0007468354684618478,0.03723856752029311,0.46054312576760026,4.123030483745199,0.6048308729286577,1.1638640613585585,1.2540223514646487,1.6833621646040875,0.6410721035683209
1,131.1266945926188,59.55384615384615,6.5598941712852,2.5525722320827673,2.572702781740363,0.11015063837084423,0.042861584883849106,58.0,7.412999999999999,0.1278103448275862,10.0,53.0,65.0,0.0,0.0,50.0,77.0,2.7083333333333335,0.0,1.8191755829461052,9.12631133217282,0.1993330620371232,52.15786080947234,5.016729235884426,2.424289880996749,183.13693150357895,0.5076923076923077,0.4313725490196078,0.6818181818181818,0.3076923076923077,50.45871559633027,50.521136798642004,50.39302555511588,60.78431372549019,0.5107913669064749,0.48920863309352514,1.300183137283433,1.2724180205607034,0.508128025677923,0.49187197432207697,6.505517576359464,6.4006093143875065,0.5082298095648935,0.4917701904351064,4.691067848944316,4.61447977644673,1.5994224880510146,1.1074421529546603,2.0957898459951476,1.634820825429515,0.9722038564635032,1.1790186033235548,-0.916246590700711,0.0016532710951782988,0.13344392850607337,0.47669443870926154,4.266781137052228,0.6313261762318484,1.3586774032803337,1.2872435324045792,1.5977088296057178,0.4632590625406503
1,130.0651536207171,60.15625,9.765860116217302,4.525062483125562,4.552307360465401,0.16234157076309283,0.07522181790130804,57.0,5.9304,0.1040421052631579,8.0,53.6,64.4,0.0,1.5625,50.0,98.0,2.0,0.0,3.2189674046305177,13.428338560585066,0.23971449558762606,135.7965492152772,4.171629243983106,2.8398588440019683,224.0721993497707,0.53125,0.5208333333333334,0.8,0.3333333333333333,55.999999999999986,56.19627632054998,55.70285395547058,54.166666666666664,0.7472868217054266,0.2527131782945736,2.7882240850381983,1.62142907894996,0.5063879259690605,0.49361207403093954,9.555731830992103,9.43441920161809,0.5195280244812707,0.4804719755187292,7.038686112273469,6.768947404505542,1.2974895120102683,0.5881962719206217,1.1478422926591945,1.1356648008897827,1.0,1.0143947453363822,-0.5207031094053843,0.0007191813830404562,0.044849439452401024,0.34758602747187384,4.275957868318166,0.5439847318467376,1.1123812075701351,1.490754148007597,1.4317777840035493,0.65625
1,134.55975458233993,57.59090909090909,10.934739661671486,4.799038365211225,4.812443805865725,0.18986919696667143,0.08332979008259428,52.0,2.2239,0.042767307692307695,6.75,51.0,68.0,0.0,0.0,49.0,88.0,1.4666666666666666,0.0,3.402911649206851,14.828831065503131,0.2294794265424719,158.5285414220059,4.357689118657967,2.907077573778563,258.4777431062409,0.6363636363636364,0.6590909090909092,0.896551724137931,0.23076923076923078,40.25157232704403,40.57208461214492,40.02162398054137,63.63636363636363,0.4475617902471611,0.5524382097528391,2.2878756522153907,2.5418374259578442,0.43727495147949696,0.5627250485205031,9.805826792791962,11.123847880971498,0.4377944386390924,0.5622055613609075,7.119993472266554,8.068485892005825,1.461151771753492,0.47247901052189345,1.5237701767461678,1.4161221148340943,1.0367285069074121,0.6513805499875405,-0.7278367070595727,0.0010515550781083525,0.04178626663432319,0.19663035029980613,3.583099089451265,0.438746138078771,0.6908642793705972,1.3512712957677233,1.5688283349292789,0.45790864540594345
1,138.24330545750018,56.44117647058823,9.267794264848433,3.3143739419180918,3.328399786375824,0.16420271235270806,0.058722623254411216,53.0,3.7064999999999997,0.06993396226415094,5.0,50.0,60.6,0.0,0.0,48.0,84.0,1.5454545454545454,0.0,2.353534059446201,12.829624949527755,0.1834452736307644,94.86026227661647,5.451217031695149,2.6840544310485672,279.7482801405069,0.5588235294117647,0.6,0.8888888888888888,0.3333333333333333,57.75862068965518,57.41247286537167,57.966215127790456,53.333333333333336,0.6644021739130432,0.3355978260869565,1.9247195781581934,1.367922556730505,0.49620918964716876,0.5037908103528312,9.037459462256706,9.106239773562505,0.5017200056852218,0.4982799943147784,6.533766868601861,6.511329162883099,1.7258555126384088,0.9482447630788369,0.7776107495595719,1.2517331310989903,0.9660857598294512,-0.8288175277689256,0.0,0.0032934440834284854,0.14094005053221564,0.24965902050971867,3.891311874293683,0.42816954821065556,0.8860029965833728,1.2386075582420661,1.4918731258265474,0.4476075618566426
1,146.88206482461968,52.72222222222222,9.438044411641584,3.2457990183629106,3.2687779760547278,0.179014541000578,0.06156415419444931,49.0,2.9652,0.06051428571428571,6.0,47.0,54.0,0.0,0.0,46.0,85.0,1.3584905660377358,0.0,2.311375073061536,12.335256434620524,0.1873795721485252,89.57121811272125,5.336761038216891,2.6591385903505977,263.321263746788,0.7083333333333334,0.75,0.9230769230769231,0.5,49.12280701754387,49.37242182805108,48.804377865884,50.0,0.4572192513368984,0.5427807486631016,1.562964216755183,1.70293863659264,0.7034915395885896,0.29650846041141027,10.346122632229271,6.716866664354765,0.6951373434749393,0.30486265652506056,7.3988212123278085,4.899811107926524,1.4255510026854687,0.670022156514984,0.7555288461704848,1.0905399244279768,0.9331871480655962,-0.7099232715878039,0.0,0.0025592534119324565,0.08805152141340046,0.2875260196177698,3.683941537305384,0.3666717171154914,0.8562524056428905,1.442191248636103,1.3706364546227192,0.42846701398904946
1,139.83384080465464,55.614285714285714,4.146913841634269,1.6240939503059206,1.5980326779818048,0.07456562263406083,0.029202819553407255,54.0,2.9652,0.054911111111111105,4.0,53.0,57.2,0.0,0.0,51.0,77.0,1.8918918918918919,0.0,1.1299797431586325,5.166969163105274,0.21869295277147172,18.342410152046323,4.572621053066,1.9704265103777556,94.50636790303194,0.7285714285714285,0.717391304347826,0.9393939393939394,0.6,31.818181818181824,33.65220681636653,29.782188274078,58.69565217391305,0.13736263736263732,0.8626373626373628,0.42874646285627205,1.0744355563298724,0.2430945525919832,0.7569054474080168,2.547554497016193,4.495279348073197,0.23804764284524393,0.761952357154756,1.8267262308128156,3.268175957772108,1.5982255482912033,0.87325924705203,0.7249663012391734,1.1615959247651884,0.9730123682125922,-1.2961360983401549,0.0,0.0014432827972958254,0.09481541421552063,0.6653860089832957,3.342480415087147,0.569153400512786,1.1547249789998395,1.397508827449074,1.2820725449610735,0.52536711573814
1,146.83113126316255,53.15277777777778,6.98823905809041,3.04196007974473,3.063315755929046,0.13147457856872471,0.05723050058573832,51.0,2.2239,0.043605882352941175,3.0,50.0,53.0,0.0,0.0,48.0,81.0,1.1612903225806452,0.0,2.166091343933023,9.691363949995255,0.22350737781693605,65.94950541645561,4.474125238134426,2.526181652896342,173.44150416247962,0.6805555555555556,0.6851851851851852,0.9459459459459459,0.35714285714285715,48.71794871794869,48.49126194749782,48.948201433111414,57.407407407407405,0.5646879756468799,0.4353120243531202,1.6278820596099706,1.4292855358035157,0.46721164506722423,0.5327883549327758,6.624326545766039,7.073954553594967,0.4718502971407017,0.5281497028592984,4.823468782159818,5.103121112083472,1.5325974705686427,0.6830931150845632,1.543960558783886,1.266889797402994,1.0,1.3981977169605377,-0.9056119952937781,0.0014692050144198025,0.05688265581881054,0.46084981741721265,3.3301532082206124,0.49700751299906004,0.9447031127550606,1.366504651065308,1.4690267753850574,0.5998538195846693
1,130.31767418464798,60.078125,9.08217281795706,3.3970108241927255,3.4158751096866755,0.1511727075030564,0.0565432230814914,57.5,8.1543,0.14181391304347823,11.0,53.0,66.80000000000001,0.0,0.0,48.0,82.0,2.782608695652174,0.0,2.41538845374579,12.620154720586074,0.19139135036163965,95.76383681337666,5.224896517582796,2.6881716478770263,263.75600980378505,0.640625,0.6122448979591837,0.8666666666666667,0.1875,55.63909774436089,56.39879211213611,54.91629388442282,44.89795918367347,0.6162310866574967,0.38376891334250346,1.9007638532459659,1.4999999999999998,0.5416337074923611,0.4583662925076391,9.287899795760131,8.544192329029695,0.5442822511516044,0.45571774884839555,6.703655191083724,6.134053413341372,1.7701442656926913,0.5996411493897869,1.9360759753367205,1.8609150456793535,0.6097148089782038,0.02901348323610886,-0.6253431818911245,0.0003307985227482349,0.027443770805152187,0.37283806577966994,4.542434179450872,0.5557338076385469,1.28771234249171,1.3273579421517585,1.4907941300467746,0.46875
1,133.21398123099965,58.621212121212125,8.481228415225912,2.433737233777904,2.441626192015981,0.14467848937836914,0.041516323967263284,57.0,5.9304,0.1040421052631579,7.0,52.0,61.0,0.0,0.0,49.0,88.0,1.8333333333333333,0.0,1.7264904374971877,11.757894238471314,0.14683670413093075,63.77399147478233,6.810286337592569,2.5116137093424014,320.2985059644783,0.6363636363636364,0.6041666666666666,0.8275862068965517,0.3333333333333333,57.57575757575759,56.946697605341775,58.05344806511904,56.25,0.6623376623376623,0.33766233766233766,1.4114487238295268,1.0077822185373186,0.5629075393475199,0.43709246065248025,8.821614636805206,7.773492916493914,0.5650247407472472,0.4349752592527527,6.317162032918573,5.542689650466687,1.6520478983220737,0.20737550965202933,1.4745509314832432,1.578238686309258,1.054525706553413,-0.26535054763372123,0.0,1.1238791612200991e-05,0.002161410450246871,0.41858295208238205,4.228508188571115,0.44068462850938284,1.1547009783941558,1.3701365913923844,1.4519081240158844,0.7326538326495095
1,131.40072881007495,59.109375,2.533065070382846,1.50659923995775,1.5165919699368746,0.0428538632049966,0.025488329727014536,58.0,2.9652,0.05112413793103448,4.0,57.0,62.0,0.0,0.0,55.0,65.0,1.1228070175438596,0.0,1.0723924662354285,3.362773219769447,0.3189012152026571,11.32925122048141,3.1357672919637967,1.761171317127995,42.17949709137926,0.625,0.717948717948718,0.8928571428571429,0.4166666666666667,46.26865671641792,46.43588768625623,46.09827033454232,56.41025641025641,0.5104895104895106,0.4895104895104895,0.7672741865978255,0.7513428837969106,0.4296531079415391,0.570346892058461,2.2042282238740927,2.5396105340534847,0.4371339772936091,0.5628660227063909,1.6503532561761576,1.8727169825827505,1.1777577748813377,0.705063134573964,0.5739749223357364,0.9243007057786834,1.0,1.5214755779336944,-0.003128491245493746,0.0014306928214003584,0.09568719855291236,0.39342961092008233,3.112047855822344,0.9127444845319355,1.7166373050542143,1.569854759838747,1.8487659259117843,0.75
1,118.7499725751092,65.67796610169492,8.593182297544436,5.447239098213282,5.491482708262699,0.13083813046583787,0.08293860820505383,64.0,7.412999999999999,0.11582812499999999,10.0,58.0,71.20000000000002,0.0,1.694915254237288,55.0,90.0,2.269230769230769,0.0,3.8830646617812206,11.565386589697166,0.33574879937350166,141.0862367635077,2.9784172031768197,2.856454759512023,137.78618552057813,0.5084745762711864,0.5208333333333334,0.72,0.14285714285714285,46.62576687116563,45.932357604742876,47.33052848627617,64.58333333333334,0.7669959325973271,0.23300406740267288,3.4027852368936027,1.8755116261034275,0.42922507260936893,0.5707749273906311,7.577094359279696,8.737608828490709,0.46348100310332824,0.5365189968966718,5.873300022042517,6.319151521342398,1.3694419895086227,1.6163263542251594,1.9051843299027753,1.4490478206659154,0.780303045179668,1.3015690094365286,-0.7822056993901608,0.0030916617873899357,0.26914626787620743,0.42297879765118473,4.387069643302053,0.6061353234927362,1.265136977573965,1.4801001373031708,1.9732582141948227,0.4985290719798171
1,126.49325881331558,61.79032258064516,5.590205418009908,2.1803894974650144,2.1945038151107235,0.0904705653658612,0.03528690912107306,60.0,2.9652,0.04942,3.75,58.0,63.800000000000004,0.0,0.0,56.0,81.0,1.2916666666666667,0.0,1.5517485290045419,7.782757318290852,0.19938287493015608,37.94064446142909,5.0154758795122225,2.286074813521956,156.13692642393997,0.6774193548387096,0.6304347826086957,0.7931034482758621,0.5,54.25531914893617,54.49289110918525,53.99530643177272,47.82608695652174,0.4999999999999999,0.5000000000000001,1.0992421631894096,1.0992421631894098,0.5006031878221283,0.4993968121778719,5.506558963196273,5.499919986713681,0.5005800452487915,0.49941995475120854,3.9705493919916512,3.965945864077443,1.711102564036946,0.562906031586738,1.2646350478950037,1.5460880636883727,1.2381389614363245,-0.594588692688018,0.0,0.00014692673863206724,0.016658851420125603,0.47430542385541186,3.442371334331055,0.6817674989407211,1.1728131174451053,1.495633359392144,1.4972408896434166,0.7682833948886291
1,117.45561286545413,66.46551724137932,7.4415040859426425,3.1816359027305214,3.2098688673158295,0.1119603727586701,0.04786897078038138,63.5,5.1891,0.08171811023622047,9.75,60.0,73.0,0.0,0.0,59.0,84.0,2.32,0.0,2.2697200427986055,10.356127337648179,0.21916687278915276,73.84473685640621,4.562733351413193,2.5752896571971022,189.00899037987708,0.5862068965517241,0.5555555555555556,0.8,0.4,50.44247787610618,50.43607270277839,50.455265166698105,62.22222222222222,0.7227036395147312,0.2772963604852686,1.9295632370342997,1.1952286093343936,0.3976158410280537,0.6023841589719464,6.530241176061284,8.037743689373135,0.41251588911322484,0.5874841108867751,4.814938426565834,5.746037549678435,1.700921917421758,0.7268220938115688,0.9740998236101892,1.3375108705159735,0.902332731587693,-0.7991178744479641,0.0,0.003356949555961342,0.12185413778984264,0.32260036774540524,4.036450986649216,0.5524085788779245,1.1661456372368435,1.2435355962334609,1.7130223896212056,0.6059980339787143
1,112.67493537007648,69.38181818181818,11.49152813403069,4.951617767812709,4.997973034284255,0.1656273709045304,0.07136765650673454,66.0,5.9304,0.08985454545454545,6.0,61.8,71.4,0.0,1.8181818181818181,57.0,98.0,1.9642857142857142,0.0,3.5341006247299016,15.982869935548486,0.2211180244212268,177.45308291048315,4.522471664702529,2.956053658753211,289.12830561657586,0.6545454545454545,0.6190476190476191,0.8461538461538461,0.4,49.20634920634918,48.79039766612716,49.62569811158348,64.28571428571429,0.7885196374622356,0.21148036253776434,3.138320666180176,1.625272110744002,0.4130435311224911,0.586956468877509,10.271944819584167,12.244969620218649,0.430546934451208,0.5694530655487917,7.594797791263294,8.734437315421065,1.7254516678990353,0.824336193159573,0.9011154747394623,1.3132835713192488,0.7646348973902182,-0.8680805905564903,0.0,0.010022442590133717,0.3021009700063946,0.36105700013499753,4.143944142416116,0.4980437837635792,1.0575233323316224,1.1935460192694707,1.5057260453708818,0.42046252461997524
1,124.28026819969855,62.77049180327869,10.539439331423898,4.39507299901454,4.430601086613481,0.1679043612475471,0.07001813866280673,60.0,4.4478,0.07413,5.0,57.0,63.0,0.0,1.639344262295082,54.0,94.0,1.4186046511627908,0.0,3.1329080730768784,14.673754386543687,0.2135041919435327,144.42380075310078,4.683748786836366,2.866608879954205,274.9127172252352,0.5245901639344263,0.5333333333333333,0.75,0.2727272727272727,47.10743801652892,46.48788941336326,47.77119221813183,68.88888888888889,0.7118205349439172,0.2881794650560828,2.6441492816648635,1.6824115057191777,0.5158262865711705,0.48417371342882937,10.538844109744272,10.210378672072776,0.5243767561962084,0.4756232438037916,7.6830580042461065,7.317183238845906,1.7439363014831557,0.944191720956125,0.8435714938966088,1.3156673543746713,1.0,-1.1637693596431422,0.0,0.007176926045666782,0.25795448010241145,0.317261966899822,3.912812438372274,0.41004337036344185,0.9953935787923586,1.2078068295423474,1.4983651593582026,0.5833512135307757
1,121.90467071715112,64.16666666666667,9.454918308795095,5.557099597110294,5.6031322124592124,0.1473493762409625,0.08660414956535523,61.0,5.9304,0.09721967213114753,7.25,57.0,66.0,0.0,1.6666666666666667,55.0,87.0,1.7142857142857142,0.0,3.9620127833146923,12.845471449585936,0.30843654114714525,159.88797175334187,3.2421580020343046,2.9107859033037924,166.58819220071297,0.6166666666666667,0.5869565217391304,0.8518518518518519,0.2727272727272727,52.597402597402585,52.80809922942964,52.41394574109138,56.52173913043478,0.6448957189901208,0.3551042810098792,3.1826577486163328,2.3616913868870655,0.3842826237739952,0.6157173762260046,7.962976276101857,10.079540941350771,0.40693413291819236,0.5930658670818078,6.063757148772887,7.320339192799161,1.5453992152758018,1.177185371960085,2.034265150460781,1.5256972477373478,1.034596049842206,1.3237109440670456,-0.9320202364362011,0.003869681178127704,0.2001882608596605,0.44493814745787175,3.9233950807636107,0.5702152249694311,1.1034501777239367,1.3392136368385694,1.6477747942454648,0.7875854127478025
1,122.60214036231625,63.7,11.264613860391702,5.050591507563365,5.0729914792179,0.176838522141157,0.07928715082517057,59.5,6.6716999999999995,0.11212941176470588,9.25,55.0,69.40000000000002,0.0,1.6666666666666667,53.0,93.0,1.7647058823529411,0.0,3.5871466758565513,15.403846666007723,0.23287343438522076,173.59139556058005,4.294178091373847,2.9464983045743187,264.5874435042097,0.55,0.4893617021276595,0.782608695652174,0.23076923076923078,41.61490683229814,41.419941321892786,41.97668012412078,63.829787234042556,0.6491694352159467,0.3508305647840531,2.902139519923783,2.1334770066562783,0.3822575197334666,0.6177424802665332,9.523732875297302,12.106899034429032,0.3960953443602856,0.6039046556397146,7.040024917325296,8.692776552051413,1.61444241615241,0.9757388724480816,1.8139515497908372,1.4828461364271712,0.6926920874470479,1.2127189819742057,-0.8393381392430728,0.0007120457900147583,0.06761040386969626,0.4001584995269063,4.352153720356113,0.5595875453014577,1.1528843552886145,1.3469842475778229,1.6779158923730568,0.6891372361543272
