Stress,ECG_Rate_Mean,HRV_MeanNN,HRV_SDNN,HRV_RMSSD,HRV_SDSD,HRV_CVNN,HRV_CVSD,HRV_MedianNN,HRV_MadNN,HRV_MCVNN,HRV_IQRNN,HRV_Prc20NN,HRV_Prc80NN,HRV_pNN50,HRV_pNN20,HRV_MinNN,HRV_MaxNN,HRV_HTI,HRV_TINN,HRV_SD1,HRV_SD2,HRV_SD1SD2,HRV_S,HRV_CSI,HRV_CVI,HRV_CSI_Modified,HRV_PIP,HRV_IALS,HRV_PSS,HRV_PAS,HRV_GI,HRV_SI,HRV_AI,HRV_PI,HRV_C1d,HRV_C1a,HRV_SD1d,HRV_SD1a,HRV_C2d,HRV_C2a,HRV_SD2d,HRV_SD2a,HRV_Cd,HRV_Ca,HRV_SDNNd,HRV_SDNNa,HRV_DFA_alpha1,HRV_MFDFA_alpha1_Width,HRV_MFDFA_alpha1_Peak,HRV_MFDFA_alpha1_Mean,HRV_MFDFA_alpha1_Max,HRV_MFDFA_alpha1_Delta,HRV_MFDFA_alpha1_Asymmetry,HRV_MFDFA_alpha1_Fluctuation,HRV_MFDFA_alpha1_Increment,HRV_ApEn,HRV_ShanEn,HRV_FuzzyEn,HRV_CD,HRV_HFD,HRV_KFD,HRV_LZC
0,105.23685740245345,73.74509803921569,4.711021703430804,2.5099800796022267,2.517287169529442,0.06388250648098139,0.034035890470543353,73.0,4.4478,0.06092876712328767,5.5,70.0,77.0,0.0,0.0,66.0,90.0,1.7,0.0,1.7799908277681589,6.049135542895904,0.29425540478400714,33.82680290383447,3.398408266227198,2.2362310629127635,82.22972893002476,0.5882352941176471,0.5526315789473684,0.7142857142857143,0.16666666666666666,58.42696629213483,57.686904218262605,59.2278700945278,47.368421052631575,0.673015873015873,0.326984126984127,1.4708043058552855,1.0251928638862373,0.5988560019185616,0.40114399808143847,4.681171142492668,3.8312762300596916,0.6048442714982235,0.3951557285017763,3.4696273986862454,2.8044338073115282,1.5034970641554426,0.9295855052892712,1.7262870698256163,1.634434177948794,0.6373195688235569,0.4286642618817593,-0.5988105896167553,0.0002972528727463198,0.06040458339147395,0.16708254176744886,3.9222610093012724,0.9915921161929528,1.8181046001118533,1.539060020191203,1.8353924159932768,1.0010162368184992
0,97.01646221523015,80.33333333333333,7.571877794400366,4.192191322578966,4.235548428513924,0.09425574017925767,0.052184954222974686,78.5,8.1543,0.1038764331210191,11.0,74.0,87.0,0.0,0.0,69.0,96.0,2.526315789473684,0.0,2.9949850158462206,10.376247514802094,0.2886385479503805,97.63035072558289,3.464540710521828,2.6965549594275817,143.7957277499312,0.3958333333333333,0.34146341463414637,0.35714285714285715,0.25,47.887323943661976,47.83719281517397,47.951209391966174,68.29268292682927,0.6634382566585957,0.3365617433414042,2.440598643597598,1.738315026235113,0.3557789573988213,0.6442210426011785,6.189142069778586,8.328327138659567,0.3794597908230855,0.6205402091769143,4.704359749160006,6.015927694835113,1.5007521257311605,2.2745209484657707,2.05557888082412,2.029701842257455,-0.10263197618016484,0.2730868562245261,-0.511376918108457,0.002489845689210402,0.4023077269963647,0.4679275208652478,4.422995052579128,0.8601711246488245,1.5975811286358117,1.4716440913977888,2.3097523539142215,0.930827083453526
0,93.53694041116484,83.65217391304348,11.875684572182399,8.515345624876955,8.61013027975439,0.1419650442620557,0.10179467223085757,80.0,8.8956,0.111195,13.75,74.0,91.0,0.0,6.521739130434782,70.0,111.0,2.5555555555555554,0.0,6.088281507713955,15.812554148108667,0.3850283420811034,302.44514917161257,2.5972114016202923,3.18761673334014,164.2741836888243,0.3695652173913043,0.34146341463414637,0.5714285714285714,0.14285714285714285,51.54185022026431,51.50806698966788,51.580455909252684,63.41463414634146,0.7051792828685258,0.2948207171314742,5.113484846240113,3.3063300170760606,0.4227849675143306,0.5772150324856694,10.2816258152669,12.013535669473244,0.4592546792289796,0.5407453207710204,8.119715409972507,8.810699673224713,1.4913184210241233,2.654226026434582,2.262628410884922,2.038101878073337,0.4139641812275867,1.3100648577578466,-0.5845920922240339,0.008598667252575973,0.7116617568246073,0.33124456509962075,4.319560260725401,0.8838671214102882,1.2678577774932844,1.4974106021069362,1.9651747704266318,0.8405420367912846
0,94.19184641000626,82.8695652173913,8.69638161191749,5.176871642217914,5.235176282330014,0.10494059657612921,0.062470119502104945,81.0,5.9304,0.07321481481481482,8.75,77.0,87.0,0.0,0.0,71.0,111.0,2.5555555555555554,0.0,3.7018286499425326,11.804275034533424,0.3136006776454147,137.27944186253305,3.1887686197243825,2.844575614757543,150.56440723486455,0.41304347826086957,0.4,0.625,0.1111111111111111,50.6024096385542,50.6252749063005,50.58664158391234,60.0,0.6932006633499173,0.30679933665008285,3.082207001484488,2.0504988306618106,0.3479040939487848,0.652095906051215,6.962562224301678,9.532241937951238,0.3788238788238788,0.6211761211761211,5.384109616606665,6.894497146934714,1.6362404842674103,1.3697392271494113,1.9101024163365738,1.8385340103548087,0.10289034742421066,0.21196596800619805,-0.5522496578642253,0.0003105252499383431,0.1062506969730462,0.4402157213631632,4.321731249206049,0.7999468322943016,1.703266037898111,1.4701470461358386,1.6918328794410094,0.960619470618611
0,96.97752992113764,80.55319148936171,9.665736236018125,6.370789317010815,6.432743834221519,0.11999197123424507,0.07908798148428639,78.0,7.412999999999999,0.09503846153846153,11.0,73.0,85.80000000000001,0.0,2.127659574468085,68.0,107.0,2.238095238095238,0.0,4.548636786813988,12.94485703557585,0.35138563325289307,184.98153990124675,2.8458761695595496,2.9740985004240375,147.35784062360233,0.3617021276595745,0.36585365853658536,0.6,0.0,45.762711864406775,45.242866590665535,46.295439262981475,58.536585365853654,0.6411355115158008,0.3588644884841992,3.646916505762094,2.728450923957483,0.4809204885374742,0.5190795114625257,8.977055252363703,9.326403522661177,0.4985696050975178,0.5014303949024823,6.851551685712907,6.871180652258798,1.6210099108866338,1.6139560649124967,1.935922244928126,1.8693231042310767,0.047375613567654185,0.354673583691997,-0.541264531386522,0.0004708891478782498,0.15283175966768253,0.38671165603141366,4.2988537451105335,0.8386852384808094,1.5640812911169761,1.4844254576690359,2.256104644500032,0.9454619322004489
0,102.29498044675995,76.38,11.513771700685671,6.653217726968581,6.719602757938135,0.1507432796633369,0.08710680449029302,73.0,4.4478,0.06092876712328767,6.75,69.8,79.2,0.0,4.0,67.0,117.0,2.0833333333333335,0.0,4.751476677017882,15.722184162193624,0.30221479585791444,234.68825380845828,3.3089048375717103,3.0774614635832704,208.09284492590325,0.58,0.5813953488372093,0.8,0.2,53.14685314685315,53.363929567795466,52.9290838544121,51.162790697674424,0.6620562471184879,0.3379437528815123,3.8676004619574305,2.7632257719315416,0.47098387605424014,0.5290161239457599,10.78986221477878,11.435293971561077,0.48698590802391145,0.5130140919760886,8.104920109021561,8.31869475587029,1.3673402770949212,0.7229859049680298,1.7637596283697334,1.4311971847106908,0.899207307281717,0.5914885267936167,-0.959984684865673,0.001319830028341934,0.0688017878070083,0.3756776642034978,4.048047190938307,0.474729901070783,1.0014634049757118,1.4969506693778938,1.4112983083974155,0.5643856189774724
0,98.25239492970525,79.5,4.094625434250184,2.036893755258915,2.0579036961363606,0.05150472244339854,0.025621305097596414,79.0,2.9652,0.037534177215189875,4.25,76.0,82.0,0.0,0.0,72.0,89.0,1.92,0.0,1.4551576585668806,5.517695023456613,0.2637256413014438,25.2242123776931,3.7918193887600764,2.1087877243013815,83.68841188483108,0.5833333333333334,0.5,0.7777777777777778,0.1,47.887323943661976,47.68403926762062,48.07674907929805,50.0,0.44102564102564107,0.558974358974359,0.9668415633885689,1.0884771971408735,0.4614756464403998,0.5385243535596003,3.7482805185195796,4.049117376214782,0.46014459303027505,0.5398554069697252,2.7371873752274487,2.9648047267113675,1.6727277824121316,0.7012648174808609,1.822329482398279,1.7049820556790132,0.7185463899183038,0.5232453149321357,-0.6673368231145697,0.000100909533361402,0.02878107782778486,0.15546754300710885,3.8113077526010053,0.9483033472689546,2.064442688004609,1.4733933535473998,1.7292181798278377,0.930827083453526
0,97.89399566835384,79.77083333333333,6.669203861169935,3.5189456834972965,3.555949009477196,0.08360454043775317,0.044113186943815684,79.0,5.9304,0.07506835443037975,7.25,76.0,84.0,0.0,0.0,66.0,95.0,1.92,15.625,2.5144356581549117,9.18277255236027,0.27382096679598367,72.5377745039596,3.6520212885855154,2.567534337033662,134.14272339783383,0.5,0.4871794871794871,0.7894736842105263,0.1111111111111111,51.72413793103448,51.692924015662655,51.74041549200066,53.84615384615385,0.6048109965635738,0.3951890034364262,1.9560385876873028,1.5811388300841895,0.5215422803876885,0.4784577196123119,6.631604051742884,6.351782383653307,0.5273532967519711,0.4726467032480291,4.888980428249553,4.628452195350433,1.5781899094984682,1.7355771325661218,1.8214874835445434,1.7763768549077184,-0.4232824039971774,0.05525751233034626,-0.5259917164097035,0.0006261467591112742,0.14707951107434106,0.4824989172318235,4.028107168362812,0.8701426971882372,1.4163564705940672,1.4710082548058732,2.0598430128376033,0.8144736980218353
0,97.54315029939268,80.02083333333333,7.9103745058432615,3.7188421899890503,3.7568315817674116,0.0988539381099913,0.04647342492045676,79.0,5.9304,0.07506835443037975,8.25,73.0,84.6,0.0,0.0,70.0,101.0,2.2857142857142856,0.0,2.6564810872435203,10.964980839488994,0.2422695603513085,91.50914089194065,4.127633692610525,2.6684345880790405,181.03769740761447,0.3541666666666667,0.3170731707317073,0.46153846153846156,0.1111111111111111,52.38095238095237,52.51625806673219,52.23657275374841,56.09756097560976,0.5969230769230772,0.40307692307692305,2.0536288136729643,1.6875503213108998,0.5034682850714649,0.4965317149285353,7.780256879476046,7.726474467681001,0.5086552375721856,0.4913447624278145,5.6898940418509625,5.592237199309546,1.7557700828707132,1.031497500485849,2.0261420586823706,2.0348664130949987,0.5213170839894676,0.08360101722321733,-0.4915420498755268,0.0007892342972563993,0.09334394380003612,0.26631290837444377,4.214661719245796,0.7906496821057601,1.510329398533155,1.4055643641143605,1.6946353888105201,0.8144736980218353
0,93.76966955155947,83.28260869565217,8.634975502707993,5.485333981526456,5.545678087893803,0.10368281731259925,0.06586409896899426,81.0,7.412999999999999,0.09151851851851851,11.0,76.0,90.0,0.0,0.0,72.0,106.0,2.7058823529411766,0.0,3.921386582227354,11.586848169586519,0.33843427693480255,142.74300898177984,2.954783448819058,2.8615249572825867,136.94650878189458,0.3695652173913043,0.35,0.42857142857142855,0.0,48.21428571428571,47.93218881322771,48.47161310932707,65.0,0.5457902511078287,0.4542097488921713,2.897883240009382,2.6436029133809718,0.471967773284429,0.5280322267155708,7.96015434769058,8.419678928913694,0.47955831561420686,0.5204416843857931,5.9900661311785415,6.240177466612212,1.6212258083384583,1.5347320873426273,1.9048704964917693,2.05405605362093,-0.40966901188050286,-0.6011001604315709,-0.40279374598372153,0.0005469234003545478,0.14234160436172497,0.29672505425099827,4.403784238571645,0.8699993085884152,1.3959181143253394,1.4834889212683395,1.9239799981497896,0.6003871691366318
0,94.60631686258127,82.69565217391305,6.558690808444392,4.08248290463863,4.128614119223853,0.07931119274144112,0.04936756404137145,80.0,5.1891,0.06486375,9.75,77.0,90.0,0.0,0.0,74.0,97.0,2.5555555555555554,0.0,2.919371040605711,8.829387340471635,0.33064253815483513,80.97850185268979,3.0244142377461256,2.6153398477791145,106.81489913239125,0.41304347826086957,0.4186046511627907,0.6666666666666666,0.42857142857142855,50.0,49.9764700699867,50.02575971462881,53.48837209302325,0.6040000000000001,0.39599999999999996,2.2688603466778807,1.8371173070873836,0.4801740985723571,0.5198259014276427,6.118288255586784,6.365895823026766,0.4923772036379493,0.5076227963620505,4.614172648004106,4.685062946729191,1.4291358356742552,0.8568826908439675,1.722504282403238,1.359102047798462,0.8127575507719111,0.9573785920191664,-0.9240979990468134,0.0008873427898499099,0.0691797946481901,0.5411718962936773,4.020056315649835,1.0097351772213918,1.7442043365956332,1.571683268033547,1.9987149559747315,0.8405420367912846
0,98.2581981392663,79.5625,9.517970125985316,6.138473023792626,6.203010220867366,0.11962884683092306,0.07715284240430638,77.5,5.1891,0.06695612903225806,6.25,74.0,81.0,0.0,4.166666666666666,68.0,114.0,2.0,0.0,4.3861905909447785,12.745716299851479,0.3441305680870905,175.63117997843358,2.9058737953988616,2.9515717291088044,148.1497719973062,0.5625,0.5384615384615384,0.8095238095238095,0.3,47.82608695652174,47.36287941044374,48.279666370845895,61.53846153846154,0.611518915866742,0.38848108413325794,3.4309968129444224,2.734640903220241,0.34452039093921283,0.6554796090607873,7.481207717458734,10.319147982490394,0.37280673498217237,0.6271932650178278,5.819802747610906,7.548611658911219,1.5804393591685562,0.9551201295340759,1.6307597154572941,1.7366615151511948,0.10893731179178623,-0.061337129633289855,-0.38912201049980866,0.0007454299917217963,0.05365128931750493,0.5037724820521468,4.063721875540868,0.7897290119301952,1.3182532202275061,1.549630693104437,1.5829214622101302,1.0471804688852167
0,98.9735711864909,78.93877551020408,5.001700391139106,3.1490739379485304,3.1544182680692616,0.06336176814007657,0.03989261193368097,78.0,2.9652,0.03801538461538461,5.0,74.6,81.80000000000001,0.0,0.0,70.0,91.0,1.96,0.0,2.2305105480504994,6.459914585650549,0.3452848359644177,45.26691833403874,2.8961596219738186,2.3627510397104805,74.8357751374434,0.5510204081632653,0.6176470588235294,0.8571428571428571,0.3333333333333333,60.20408163265305,60.23268009451378,60.18912403167296,44.11764705882353,0.7037815126050421,0.296218487394958,1.8878108451945186,1.224744871391589,0.6265437344210288,0.3734562655789712,5.113314100216263,3.9477228076994284,0.6349019905021724,0.36509800949782767,3.854206200678973,2.9227140953598467,1.2538021951414124,0.49692426176869464,1.0527015429938242,1.036520777497254,0.3666669903015567,0.6963852312568495,-0.5325618343507283,0.0010666006411050868,0.03264221934921717,0.5649757134129145,3.828996458679136,0.8841230231580445,1.5202384011043426,1.5840794284375619,1.6609207745472794,0.687515491116148
0,95.89247940111323,81.25531914893617,7.6313657251315306,7.413266603807692,7.494667991924575,0.09391835273139093,0.09123423157343848,81.0,7.412999999999999,0.09151851851851851,9.0,75.0,87.0,0.0,2.127659574468085,67.0,102.0,2.764705882352941,0.0,5.2995305598316325,9.474960645145346,0.5593195326406907,157.74830023079187,1.7878867832109206,2.9049347982940343,67.76062763559592,0.5319148936170213,0.5348837209302325,0.8260869565217391,0.16666666666666666,49.07407407407406,48.91381191299241,49.251758476541504,58.139534883720934,0.6811708860759493,0.31882911392405056,4.374166587286466,2.9925834249951255,0.38291993649311135,0.6170800635068884,5.86315538360531,7.443002631650294,0.4539980796557921,0.5460019203442078,5.1725199074355075,5.672470525719317,1.0395451433497922,3.0733035178404435,1.7187238015653947,1.4834852072200233,-0.43016228421818425,1.150003103293482,-0.5765425845445521,0.002398638646991777,0.6107189880479137,0.30223754784327106,4.4104518833623745,1.1137889069714002,1.8002725306050074,1.7139992201016079,2.556030874379179,0.9454619322004489
0,89.10803900881635,86.93023255813954,9.679126654909101,5.338539126015656,5.344409955274281,0.11134361855566917,0.061411766297130334,85.0,10.3782,0.12209647058823529,14.0,78.0,94.6,0.0,0.0,72.0,117.0,3.5833333333333335,0.0,3.7790685208153367,12.444545983629775,0.30367267120765407,147.7453073996577,3.2930194081119373,2.8764838059259232,163.92052579693726,0.5116279069767442,0.5,0.631578947368421,0.25,39.99999999999999,41.054351477168105,38.83766132559767,63.1578947368421,0.4126984126984127,0.5873015873015872,2.4544633311382835,2.927997734238761,0.27823342378399835,0.7217665762160015,6.564228747861842,10.572493825224969,0.289816164456993,0.7101838355430069,4.955476228283124,7.757280335791902,1.5647245657016264,0.3600889726193852,1.6668932410975663,1.601914050170417,0.9153383861507294,0.25281771960318,-0.6804531542703821,8.817742859800041e-05,0.010957957161815,0.2727902171193839,4.722435394086042,0.9621200169999443,1.6592647549459147,1.5140597691660993,1.5328453518945424,0.7571532215863394
0,92.9551722414273,83.91304347826087,4.8296587731157885,4.402019738458447,4.451534748394268,0.057555519057856545,0.05245930258266543,83.0,4.4478,0.05358795180722892,5.0,80.0,87.0,0.0,0.0,74.0,98.0,1.84,0.0,3.147710407277138,6.086497724098362,0.5171628332028056,60.188304107372204,1.9336269658184222,2.4864822165830374,47.07606450683619,0.6521739130434783,0.6315789473684211,0.8333333333333334,0.3333333333333333,49.26470588235294,49.215421729307245,49.308688728844366,47.368421052631575,0.47821100917431175,0.5217889908256881,2.1768409137179416,2.273863352414684,0.5812883435582822,0.4187116564417178,4.640483908935673,3.938446855851128,0.5595353339787028,0.44046466602129736,3.624412178045377,3.215728391967999,1.2920402864800038,1.1193006954664453,1.3777555010001676,1.597423101765893,-0.4982182610722603,-0.8174990833497846,-0.303745676514403,0.00028142297302595856,0.06130922883946191,0.0391402268643799,3.804895651144804,1.2922529079686824,2.066675248656501,1.7529066642706803,2.203923298856899,1.0806969044459374
0,90.80132783256201,86.20454545454545,12.657527488185238,5.968911707903224,6.03955217513604,0.14683132335358567,0.06924126420979222,83.0,7.412999999999999,0.08931325301204819,9.75,76.6,90.4,0.0,2.272727272727273,72.0,121.0,2.0952380952380953,0.0,4.270608298368657,17.42698738330951,0.24505717508344452,233.80937936610454,4.080680354123439,3.0758320390512504,284.4558601865126,0.45454545454545453,0.4358974358974359,0.6470588235294118,0.1111111111111111,50.0,49.92142048319157,50.08531699239811,56.41025641025641,0.6573107049608357,0.3426892950391644,3.462382884386884,2.4999999999999996,0.40704524190783453,0.5929547580921651,11.118434911911699,13.419399925764633,0.4212230201439459,0.5787769798560543,8.234309021663934,9.652209445707543,1.7958241166999716,1.311103631027195,1.9054665244553528,2.0158684611432744,-0.036826517927545765,0.07939653167469984,-0.4157946526306038,0.001148580146577347,0.10274948911538438,0.48512650766697707,4.2146384383380475,0.7256961508421124,1.3332884607103832,1.5174748233069029,1.5473183514155788,0.868545939328661
0,97.13918840634243,80.625,10.737932365654093,6.464304606263012,6.502258911549236,0.13318365724842285,0.0801774214730296,76.5,7.412999999999999,0.09690196078431372,15.25,73.0,91.0,0.0,2.083333333333333,67.0,107.0,2.1818181818181817,0.0,4.597791369387125,14.236732467155186,0.32295271263925535,205.64088175371566,3.096428550878964,3.0200795673428993,176.33209953009936,0.4375,0.41463414634146345,0.7058823529411765,0.2857142857142857,58.24175824175825,57.89146987888072,58.58806645351097,58.536585365853654,0.8105906313645623,0.18940936863543795,4.159849495605214,2.0108401877995092,0.3901612325902033,0.6098387674097968,8.89267419724425,11.117773921204591,0.4302235387171419,0.569776461282858,6.942045887359886,7.9890041689777105,1.4473405289375254,1.3528164485688379,1.9181495632448877,1.4620598397771332,0.3416187329813809,0.8783469384175682,-0.8371408766874899,0.0017462360247979048,0.14011030676366862,0.5159796447249123,4.462581188618506,0.7861406044081538,1.3948362734919806,1.3991965021932682,1.7488834345612054,0.8144736980218353
0,86.08535290190804,90.33333333333333,13.063945294843617,7.752261668417144,7.847945202563472,0.1446193206071249,0.08581839485332632,89.5,13.343399999999999,0.14908826815642456,17.75,78.0,101.80000000000001,0.0,2.380952380952381,71.0,118.0,3.8181818181818183,15.625,5.549335271113065,17.854288273580032,0.31081246063024087,311.2672146161054,3.2173742261564398,3.2001034893621076,229.7757076711342,0.35714285714285715,0.358974358974359,0.5,0.14285714285714285,49.15966386554623,49.03722194996048,49.30808877590433,64.1025641025641,0.6806006493506495,0.3193993506493507,4.5784822812805555,3.136478917512439,0.31955564382458307,0.6804443561754169,10.092895779268892,14.727832988763613,0.35136617596657527,0.6486338240334247,7.836741836094379,10.647689057840525,1.5908802602512213,2.0933976701137817,2.0082911523525793,2.184393648891865,-0.23295452647637305,-0.11459357567263329,-0.41587718900551074,0.0028456029684753117,0.35310372136349144,0.3355710572295303,4.576492125005179,0.9153509613820036,1.6066765196500765,1.6199888345577405,2.4158998352109378,0.8987195704631268
0,90.33876261916451,86.27272727272727,7.692834589207889,5.844894412876457,5.908400086623296,0.08916878870525478,0.06774903955915809,84.0,5.9304,0.0706,9.5,80.0,93.19999999999999,0.0,2.272727272727273,74.0,106.0,2.0952380952380953,0.0,4.177869767214518,10.110381932095645,0.41322571147898696,132.7004307516393,2.4199849433881395,2.829842442568174,97.8678881902998,0.5909090909090909,0.5789473684210527,0.7727272727272727,0.375,46.857142857142854,46.68913033844156,47.04921747468623,55.26315789473685,0.5936010891763103,0.40639891082368956,3.221948537911861,2.6659225152173605,0.4642336782945526,0.5357663217054474,6.888677981951613,7.400401237353357,0.4831329260556175,0.5168670739443826,5.3774918279797195,5.562062626893191,1.6490626262442352,1.0688990843009547,1.7251762155175405,1.7579668569864038,-0.30919697610822894,-0.18099611092857515,-0.46932297730397265,0.00021910258831606784,0.041689057204916266,0.4217489439621547,4.075480414328636,1.1167870348456523,1.7860661137426885,1.6138371750615201,2.6308952177984652,0.7444679479959951
0,94.83917513757643,82.3695652173913,12.65149740044355,9.72967967955095,9.83952039563726,0.15359432051211488,0.11812226583777877,80.0,10.3782,0.1297275,13.75,72.0,91.0,0.0,6.521739130434782,61.0,115.0,3.8333333333333335,46.875,6.957591595378447,16.674967629790032,0.4172476822652792,364.4800858219237,2.396658010347476,3.268643914621507,159.8567789688846,0.34782608695652173,0.3170731707317073,0.5384615384615384,0.16666666666666666,50.39370078740157,50.100783949231044,50.68696750271625,63.41463414634146,0.6882629107981221,0.3117370892018781,5.772190383050598,3.884701930767545,0.4889441065992429,0.511055893400757,11.659894138161432,11.920629771174598,0.5184997478333782,0.48150025216662184,9.199763940757206,8.86544762638422,1.2266578649467343,1.6098793819586779,1.7485972412117157,1.4617279738786697,0.7065992924616076,0.9776342362738037,-0.6781930190223464,0.00261573707363544,0.2588496837866575,0.34141591282962436,4.745856792778374,0.8583435647280651,1.5696590052984667,1.5863347336293683,1.9962419523121404,0.8405420367912846
0,91.7660186276036,85.33333333333333,18.158394001873422,13.152946437965905,13.251191657291294,0.21279367970945418,0.15413609106991297,80.0,13.343399999999999,0.16679249999999998,23.0,72.0,102.4,0.0,8.88888888888889,51.0,126.0,3.75,39.0625,9.37000747967328,23.522536537511474,0.39834171220144116,692.4269489076092,2.510407445089006,3.5473440720162634,236.20460340458789,0.4,0.358974358974359,0.5714285714285714,0.2857142857142857,58.666666666666686,57.898051607761914,59.39468780678027,64.1025641025641,0.8189700472937467,0.18102995270625333,8.51401034137399,4.002905921196936,0.5632707558398338,0.4367292441601664,17.653985020487415,15.54498433755944,0.5985334663014711,0.401466533698529,13.859140651508977,11.350546107322804,1.3375082111050969,2.333503036822986,1.9707904868081192,2.172012385847543,-0.6711669725464944,-1.0108066992032883,-0.4137683149050523,0.004201177155373136,0.48788278882625885,0.18343839546044105,4.969413651789076,0.6963885538675351,1.2729395319494963,1.4691941066126828,1.7269303176758288,0.7322470795106233
1,84.57853677857209,91.7560975609756,10.624924676920958,7.146677549742957,7.237677414680372,0.11579529818015931,0.07788776702271698,93.0,8.8956,0.09565161290322581,14.0,84.0,99.0,0.0,2.4390243902439024,70.0,112.0,3.1538461538461537,39.0625,5.11781077996121,14.075244225234602,0.36360369298500805,226.30285691126807,2.750247094000862,3.0616601466074926,154.84159811121552,0.36585365853658536,0.3684210526315789,0.7142857142857143,0.14285714285714285,49.73821989528794,49.651678980842775,49.8293660608103,63.1578947368421,0.6740088105726874,0.3259911894273127,4.201648028315336,2.9220646020342427,0.38439273043191263,0.6156072695680873,8.726568902363189,11.043527298481571,0.41821150392023204,0.5817884960797679,6.848607557801017,8.07768397285909,1.5237673443046647,1.9264931445653941,1.8552108458018035,1.9584277275947746,-0.475960977778497,-0.21619066614791738,-0.44642239860331495,0.0007617106590366733,0.21810482612649515,0.3597312788254108,4.589020906951573,0.8272246400427739,1.8014860427678652,1.435099025317355,1.8792370419300002,0.784032000675817
1,83.21090163908246,93.7560975609756,7.357922559407914,4.568916720624267,4.626498371283317,0.07847940294893978,0.048731942129447176,92.0,7.412999999999999,0.08057608695652173,11.0,87.0,101.0,0.0,0.0,82.0,110.0,2.1578947368421053,0.0,3.2714283714829504,9.964021816978862,0.32832408755954157,102.40518777766968,3.045771047238957,2.7172920682241224,121.39251665684611,0.36585365853658536,0.3513513513513513,0.46153846153846156,0.1111111111111111,48.92086330935252,48.860837490410084,48.98569226577478,51.35135135135135,0.5317365269461076,0.4682634730538921,2.385855756810896,2.238932896006603,0.5666630751648863,0.43333692483511355,7.500619365451404,6.559149327759365,0.5632636401784596,0.4367363598215402,5.56559064959382,4.900778530839087,1.5321163785813199,1.7761208202673773,1.8284455541025528,2.1522054998253046,-0.5820976004149969,-0.9486359656426417,-0.3177151339997169,0.0017062455458473269,0.24170224352676023,0.36680279465783094,4.308294687333843,1.165001213686945,1.8694078565468464,1.6377937311313604,2.1714050072204425,0.9147040007884533
1,85.33928739702314,91.29268292682927,7.2912409864131655,4.530452516029718,4.579707190281705,0.07986665253618482,0.04962558192819087,90.0,4.4478,0.04942,6.0,86.0,95.0,0.0,0.0,81.0,114.0,1.5769230769230769,0.0,3.238342010096984,9.744146829553495,0.33233715242008255,99.13257928934314,3.008992502697907,2.7031865160145854,117.2802590212562,0.5121951219512195,0.5294117647058824,0.7777777777777778,0.2,45.73643410852713,45.94628585318409,45.546212261482225,47.05882352941176,0.40803897685749074,0.5919610231425092,2.07240724638566,2.4961508830135313,0.37416250054854355,0.6258374994514564,5.9603800053094185,7.708584022257597,0.3775431583297628,0.6224568416702371,4.462118420804411,5.729443116873329,1.384341225842723,0.8801046331962372,1.4609980152063198,1.8034739820503378,0.3105807413644186,-0.6475801378545736,-0.11086903315090724,0.0012217950263127765,0.09250526659775385,0.5026683414947946,4.006720834246032,0.950728819938182,1.6453949641981875,1.7528794541008481,1.9211818118383073,0.9147040007884533
1,92.21393057085498,84.57777777777778,17.886623860620347,10.805091392487155,10.929405416051432,0.2114813646158475,0.12775331388910194,83.0,16.3086,0.196489156626506,21.0,69.8,99.80000000000001,0.0,8.88888888888889,53.0,121.0,5.0,54.6875,7.728256684026947,24.290671740716064,0.318157388421368,589.7540553650982,3.1430984675911375,3.477641045897769,305.39189250001607,0.5333333333333333,0.5128205128205129,0.85,0.2857142857142857,50.841750841750844,50.41877391748826,51.239943460884184,58.97435897435898,0.7208487444033481,0.2791512555966516,6.56187012481074,4.083432208896232,0.45427532184955594,0.5457246781504438,16.371900533112083,17.944291753900632,0.4787811159263237,0.5212188840736766,12.471913778586657,13.012917143241891,1.3385701683573477,1.9733045458481087,1.8126060968461626,1.7326404088330847,-0.1968531353327485,0.15010368150698028,-0.540523743879944,0.0013329324972119478,0.2624319996240136,0.29263092590793915,4.941744485170487,0.8379454345557302,1.7450932252839786,1.493246359255684,2.157439189193683,0.8542882594290605
1,93.55378723243851,83.34782608695652,10.443961341484153,6.027713773341708,6.092469271008416,0.12530574379454124,0.07231998789090209,81.5,11.119499999999999,0.13643558282208587,13.75,74.0,93.0,0.0,0.0,66.0,106.0,3.5384615384615383,31.25,4.3080263357007125,14.263660827502179,0.30202809698014427,193.04529691202262,3.3109502393935935,2.9926293355020874,188.90508492578942,0.3695652173913043,0.34146341463414637,0.5,0.125,47.804878048780495,47.62475919517667,47.99529676927289,63.41463414634146,0.5944954128440367,0.40550458715596327,3.3234702564419836,2.744829850663044,0.4398361336251539,0.5601638663748462,9.459680224187457,10.675507962534471,0.452777983130729,0.5472220168692711,7.089816799090714,7.794246633486389,1.4272464034041648,2.212017158905507,1.7710731693017951,2.0350411009470317,-1.0563193185578754,-0.8072912045703635,-0.38066641771628645,0.0011520869174827968,0.2888062715326235,0.33174939653361823,4.439337978210769,0.8821894003942853,1.4386979109153217,1.590774305969363,2.5731388685771197,0.8405420367912846
1,90.9614524113941,86.17777777777778,12.214538447888627,8.251721583458151,8.310440719188477,0.14173652144275095,0.09575231337174234,85.0,8.8956,0.10465411764705883,10.0,76.8,92.0,0.0,4.444444444444445,66.0,119.0,3.2142857142857144,23.4375,5.87636898718698,15.657000001552843,0.37531896190867786,289.04634519704365,2.6644004206835645,3.167937592336508,166.86606956311988,0.5111111111111111,0.5,0.8,0.3333333333333333,57.52212389380531,56.44843100262236,58.64834189422463,62.5,0.7977303070761016,0.2022696929238985,5.271688313474025,2.6545266297227035,0.3876031774903723,0.6123968225096277,9.747701375528337,12.252508597921844,0.43863447584658805,0.5613655241534119,7.836082560211309,8.864831599360917,1.519056317359727,1.4533609257700117,1.639773792781605,1.8356396192552937,-0.9796555426804741,-1.0168487825030823,-0.36523249455745743,0.0006104846553470161,0.09340330771394398,0.37369263551840115,4.580307540581811,0.7897508788711652,1.5837472211735206,1.5593554319746832,2.0022006783245123,1.2204117991843721
1,83.41988109433505,93.175,14.951009742077368,10.071538980508263,10.180821322811708,0.16046160173949417,0.10809271779456145,92.5,16.3086,0.17630918918918917,21.5,78.6,105.60000000000001,0.0,2.5,71.0,133.0,5.0,0.0,7.198927795408756,19.933357254712377,0.36114979044520373,450.8147746121405,2.768934183146722,3.360968250759504,220.7766171497952,0.325,0.3142857142857143,0.45454545454545453,0.14285714285714285,44.80000000000002,43.99788687775325,45.64581385760117,65.71428571428571,0.6870576339737107,0.31294236602628905,5.980230588759671,4.0360220123545565,0.3659346170741147,0.6340653829258854,12.058192092501788,15.8725780799567,0.40313003172951706,0.5968699682704828,9.5174354327836,11.580764408892282,1.3280496296739324,2.578110180764151,1.8308807056621879,1.9993708238006427,-0.7129823390790815,-0.2706635510676252,-0.4346458815470352,0.002389771446674616,0.4617038832254281,0.22419986063552289,4.753055907333277,0.8465505121203274,1.6952670169143247,1.5209637175545936,2.2785658538567617,0.9313374166052885
1,91.52649607958314,85.5111111111111,12.394320954340014,11.726039399558575,11.852689902638911,0.14494398205439207,0.13712883913205196,81.0,8.8956,0.10982222222222222,19.0,75.0,98.2,0.0,6.666666666666667,65.0,120.0,3.4615384615384617,0.0,8.381117405457294,15.453059249518626,0.5423597535043666,406.8799288531134,1.8437946280834219,3.3164363768528453,113.96907052686912,0.4222222222222222,0.4,0.6875,0.5,46.68874172185431,46.17098825712095,47.254469507763794,65.0,0.6299173553719006,0.37008264462809914,6.656872650755164,5.1024389972767175,0.29646846057944665,0.7035315394205531,8.414023466206356,12.96152958871992,0.37234766109248063,0.6276523389075194,7.586492746264353,9.849774946672442,0.9735358822741329,1.1274333180811273,1.5904968219716826,1.0977116436645282,0.7424604755558519,0.667082373495917,-0.9370858749729576,0.0023025250534562764,0.14989891418748008,0.4772707123467259,4.64152726285211,0.9242023062855101,1.7377990756972126,1.7723478046651464,2.6915207062843844,1.098370619265935
1,89.19344656773391,87.8409090909091,20.532383023962566,11.135528725660043,11.263775864829336,0.23374511075144966,0.12676927915369776,81.0,19.273799999999998,0.23794814814814813,32.25,69.6,110.8,0.0,9.090909090909092,63.0,126.0,3.6666666666666665,0.0,7.964692295786191,28.12846262676461,0.28315419870148467,703.8252950973234,3.5316446112609126,3.5544349810483147,397.35893383546886,0.45454545454545453,0.38888888888888884,0.5,0.2222222222222222,51.96078431372548,52.263267930784785,51.736918047186585,63.888888888888886,0.6982370592648162,0.3017629407351838,6.65743408314559,4.376615348047153,0.32494872795827895,0.6750512720417211,16.03442597020803,23.110767913490275,0.3526722481520116,0.6473277518479883,12.276486565086737,16.6322330950473,1.369280398509924,1.9496712262909903,1.932012757471592,1.9852568247469338,0.37917312232869715,0.2448610700067686,-0.47269074572299447,0.007073452099120726,0.46332249774644096,0.3800520631508113,4.81705292530797,0.8103717161976344,1.4278852662698611,1.49918371210843,1.823199621948487,0.6203899566633292
1,86.00578727853998,90.52380952380952,13.460399180900074,8.436274752953288,8.458434958739087,0.14869457275060577,0.09319398727618046,89.0,14.0847,0.15825505617977528,18.0,78.2,100.80000000000001,0.0,2.380952380952381,70.0,119.0,4.2,46.875,5.981016717549764,17.46775775466358,0.3424032323755428,328.21773901307307,2.9205331768107103,3.2231321594006888,204.0606641879502,0.38095238095238093,0.3684210526315789,0.7142857142857143,0.125,39.6551724137931,39.40225894051579,39.831104934310886,73.68421052631578,0.6723783413296778,0.3276216586703222,4.952272205765753,3.456877203488721,0.2581152354835813,0.741884764516419,8.874501770667065,15.045457098341574,0.3023492948327791,0.6976507051672209,7.186159672508428,10.915946575951095,1.4695892982768985,0.7822009180407599,0.9422348548329715,1.1349843928987327,1.0,1.8017785921206695,-0.2535805269206842,0.002347046027651039,0.11526405642730396,0.36702262639653593,4.868507898969237,0.7520316924403597,1.765729937999786,1.4605340960028637,1.7203175488861577,0.8987195704631268
1,88.11687121683899,89.16279069767442,10.021239901800337,6.706429040569241,6.775348155250387,0.11239262279014461,0.0752155578363269,91.0,13.343399999999999,0.14663076923076923,17.5,79.0,98.0,0.0,2.3255813953488373,72.0,109.0,3.909090909090909,23.4375,4.790894625477314,13.245394527550932,0.361702674504113,199.35695436657105,2.764701702499103,3.0066015001500577,146.47825920236946,0.4186046511627907,0.43902439024390244,0.6666666666666666,0.2222222222222222,54.146341463414636,54.55046522721588,53.7754345495717,60.97560975609756,0.7268395976707251,0.2731604023292747,4.0919313824921835,2.5085220602636262,0.4528895011465843,0.5471104988534157,8.913761817707714,9.797210135934218,0.484685995588191,0.5153140044118092,6.935382187805094,7.151154080792884,1.4341660433178516,1.3032137941886546,1.7500007962124324,1.8993380124277155,0.09065858023278928,-0.5339720339279488,-0.38540850558733036,0.0011540946005226644,0.1503655004531757,0.41827428915748843,4.5363888824581355,1.068698023398314,1.6693340003278738,1.6088480413385755,1.845236493158161,0.8833454251840624
1,85.69431583790976,91.2439024390244,11.905419958583732,8.23862852664204,8.341700927207494,0.13047907465969874,0.09029237358789725,90.0,10.3782,0.11531333333333332,13.0,82.0,99.0,0.0,7.317073170731707,72.0,120.0,3.4166666666666665,31.25,5.8984732922585295,15.924088751451448,0.37041198302294664,295.0829247878193,2.699696677842226,3.1769141893872668,171.96083799983293,0.4878048780487805,0.4864864864864865,0.7777777777777778,0.2222222222222222,51.64319248826291,51.707251058904,51.57330766582234,56.75675675675676,0.6349907918968694,0.36500920810313076,4.7013364166547476,3.5644253681523765,0.4879808451904105,0.5120191548095896,11.123871845708381,11.394563516184329,0.5057247968622709,0.4942752031377291,8.53941124850852,8.442191834159159,1.3988942366530914,1.849106879869726,1.9299260268816587,1.937826672852962,0.008562815557885628,-0.21767182744712876,-0.4957273178433796,0.0024707417308667003,0.3046464929371712,0.4171640065187425,4.66816999226466,0.9356260317788162,1.535908328697935,1.4848215689005257,1.8771266514019307,1.0453760009010895
1,83.99111891379675,92.8048780487805,16.335880007203656,6.24099351065197,6.310552822303045,0.17602393700272007,0.06724855031188719,92.0,19.273799999999998,0.2094978260869565,23.0,77.0,107.0,0.0,0.0,70.0,126.0,4.555555555555555,39.0625,4.462234693686389,22.83396031330841,0.1954209708898218,320.098414554023,5.117158079026224,3.212253633052676,467.3799379736411,0.3170731707317073,0.3243243243243243,0.6666666666666666,0.0,46.39175257731957,46.58812129393763,46.260754762059904,64.86486486486487,0.6290115532734275,0.37098844672657266,3.544587784792833,2.7221786146864813,0.3408759626638864,0.6591240373361135,13.331512696210837,18.538082770893887,0.3515071140329272,0.6484928859670728,9.754315284358336,13.248976738427181,1.9130465818684677,2.334683929839982,2.2788365056531963,3.00438848864949,-1.5646551420052646,-2.412655025727327,-0.18922903279416392,0.005231042446648213,0.5322092981193755,0.3790136391089258,4.900115724077511,0.6572281108485861,1.4636297481051124,1.187693762197407,1.7919295131055217,0.653360000563181
1,87.18371842213644,89.48837209302326,15.585970634521132,9.051440295807703,9.15732286954271,0.17416755126933697,0.10114655216209231,85.0,11.8608,0.13953882352941177,15.5,77.0,99.4,0.0,4.651162790697675,70.0,129.0,3.909090909090909,0.0,6.475205098568305,21.218410967726925,0.3051691810671899,431.63460779981125,3.276870870456042,3.3420863684331192,278.11997127003747,0.27906976744186046,0.29268292682926833,0.4166666666666667,0.0,47.77327935222672,47.17623398634132,48.399894293358486,68.29268292682927,0.7736123219994189,0.22638767800058118,5.6976674731109345,3.082207001484488,0.20091753427123657,0.7990824657287636,9.510903530325903,18.967437307980973,0.24974522950035052,0.7502547704996494,7.839665190469299,13.587929901794984,1.4562102038932663,3.4310517103592897,2.0976666632949796,2.303092938995177,-1.228671291848329,-0.1868593744209175,-0.44012731574987374,0.004262191780420703,0.8047007163499127,0.47247629225587184,4.693479289485193,0.7480401661306589,1.5367281914374629,1.588377640956523,1.8787155402729228,0.7571532215863394
1,85.54321121574613,91.61904761904762,17.371061414910834,9.511225716706882,9.585939907095131,0.1896009821793802,0.10381275470418114,90.0,22.9803,0.25533666666666666,29.25,73.2,110.00000000000003,0.0,4.761904761904762,66.0,119.0,5.25,46.875,6.778283112353711,23.50583736529933,0.2883659495730283,500.54750848343224,3.467815813485119,3.4064154139409895,326.05565809837765,0.38095238095238093,0.3611111111111111,0.6153846153846154,0.125,58.008658008657996,58.626081771471014,57.406014317217334,63.888888888888886,0.8201671609598276,0.17983283904017255,6.16644143732834,2.887472943596182,0.38826188894517466,0.6117381110548256,14.64664341903558,18.3847824789831,0.421697598592491,0.5783024014075091,11.237196346161667,13.159364095569437,1.463422847859881,1.4452715441373654,1.9215031961209603,1.6195294456064535,0.6283633938120943,0.8212065031487965,-0.7089391102588579,0.001935100786177371,0.19521762471928267,0.44728394792782167,4.802915339393914,0.7211260012675672,1.6124779681707508,1.3697389805317102,1.656774965720662,0.8987195704631268
1,90.35528682386098,85.97727272727273,5.453774610788881,4.128742136281579,4.175947581804646,0.06343274725739116,0.04802132011535539,85.0,5.1891,0.061048235294117646,6.5,81.6,90.0,0.0,0.0,77.0,101.0,2.2,0.0,2.95284085297363,7.19492099682888,0.4104062927549973,66.74457054433755,2.4366098124060103,2.5313860529791006,70.12486040143712,0.4772727272727273,0.4594594594594595,0.5882352941176471,0.09090909090909091,48.175182481751804,48.170894923959054,48.18499567479976,51.35135135135135,0.5020463847203275,0.4979536152796726,2.093072473889134,2.0845234695819794,0.5441604502162004,0.4558395497837997,5.3074940567396895,4.857714996609204,0.5380854517934727,0.46191454820652744,4.034256160885145,3.7378224331500856,1.3533070147783026,2.511155533354506,1.8383310812526106,2.1784406641553486,-1.1316823082490899,-1.1240847840177217,-0.3645605266638321,0.0028645458661181503,0.4627651291358573,0.3421514748492447,3.970573095811686,1.1150930632876532,1.9460457492231595,1.6743139704043302,2.6747861220785616,0.9926239306613268
1,86.84378786274397,90.0,5.901632680257467,4.869016027204134,4.920588899913426,0.06557369644730518,0.054100178080045934,88.0,4.4478,0.05054318181818182,8.75,85.2,95.80000000000001,0.0,0.0,79.0,104.0,2.0,0.0,3.4793817785600374,7.579577824654878,0.4590469098743589,82.85085106359121,2.178426601921141,2.625267083915976,66.04621585823904,0.5952380952380952,0.611111111111111,0.8636363636363636,0.16666666666666666,54.285714285714285,54.26306246825442,54.30079608227505,58.333333333333336,0.6707818930041154,0.3292181069958847,2.8548204847240397,1.9999999999999998,0.38990426457789373,0.6100957354221062,4.732863826479693,5.920304046246273,0.43893678160919547,0.5610632183908048,3.9083244491725604,4.41871021905714,0.9794017011303523,2.533989589198315,1.5889385320145988,1.4657213290656719,-0.46591825855808366,0.3256932213349657,-0.5486257731579353,0.0022163064725753364,0.43491995780312376,0.501780513521414,3.9511430177077873,1.1603987103822342,1.852595881430078,1.7970168225882233,2.100838418040589,1.1554965905954486
1,87.04298747849111,89.44186046511628,5.034652896634509,3.3806170189140663,3.421595691073206,0.05628967097121266,0.03779681014386502,89.0,4.4478,0.0499752808988764,6.5,85.4,93.0,0.0,0.0,81.0,104.0,1.5925925925925926,0.0,2.4194335156365354,6.766127977276077,0.3575802177792322,51.42849000252446,2.7965752865484124,2.4181738831026656,75.68794514749631,0.46511627906976744,0.4864864864864865,0.6666666666666666,0.125,49.999999999999986,49.98731447952171,50.01311274238077,59.45945945945946,0.6291666666666667,0.37083333333333324,1.9190953153161237,1.4733403229794102,0.43460309003729364,0.5653969099627063,4.460531522522246,5.087646444227763,0.456660368445914,0.5433396315540858,3.433603667626982,3.7453222857839936,1.6345300545854446,1.6599704989482413,1.8859761866479112,1.931011517337351,-0.3466323783862979,-0.014889669873541678,-0.4728698005669533,0.00031261661965040167,0.13910326852833862,0.6602746152683889,3.9033823487633996,1.1131878962477795,1.9244143277128707,1.6562592036679609,2.017761670678049,1.0095376287817857
1,85.39287769133351,91.51219512195122,5.301518420318429,2.850438562747845,2.8839742877334555,0.0579323707977227,0.031148182588662483,91.0,5.9304,0.06516923076923077,6.0,86.0,96.0,0.0,0.0,85.0,105.0,1.5769230769230769,0.0,2.0392777756239697,7.233269821297441,0.2819302785608213,46.340522339750635,3.546976242157219,2.372931034711235,102.62494483701926,0.5609756097560976,0.5454545454545455,0.7222222222222222,0.2222222222222222,52.941176470588246,53.112877183016735,52.772904180503666,48.484848484848484,0.5815384615384618,0.4184615384615385,1.5566235649883124,1.3204505835470493,0.3947127371522735,0.6052872628477266,4.544386241738542,5.627499088724027,0.40849365066755927,0.5915063493324407,3.396654474418871,4.087317930940746,1.6720983672313576,1.212868005542532,1.8062495493657846,2.0832335141916083,-0.5518643840410924,-1.0000932536144456,-0.2716289294794902,0.00043364676890367206,0.08596384948848136,0.5831806123247016,3.769903616086356,1.0005567325060727,1.5863638245689191,1.5282471179447679,1.6453811302820684,0.9147040007884533
1,86.6516798561486,90.02325581395348,9.735767076910696,5.637882074477462,5.704950272126236,0.10814724471897699,0.0626269514860581,89.0,8.8956,0.0999505617977528,12.5,82.0,96.6,0.0,0.0,75.0,111.0,3.0714285714285716,15.625,4.0340090237525015,13.303709105290455,0.3032243859081605,168.6007406918325,3.297887790274481,2.9338295881844947,175.49655929480335,0.4186046511627907,0.425,0.6470588235294118,0.0,48.663101604278076,48.548651947639485,48.78602903202174,62.5,0.6299625468164795,0.37003745318352066,3.2025142561705495,2.4544633311382835,0.41610905299304446,0.5838909470069555,8.581759163682845,10.165730943455747,0.4341235108115261,0.5658764891884739,6.476985714992356,7.394811554686033,1.6014961641906356,1.7785482817522302,1.9651506308095268,1.924672631717058,-0.22820891003245514,0.13255287839964147,-0.5227590105412206,0.0005911803503440037,0.1828377664929733,0.25846133050634856,4.516510906358754,0.898660473489618,1.9297381127290503,1.4146205597226438,2.339547781449599,1.0095376287817857
1,93.43284624979988,83.4888888888889,8.93822796710395,6.056551674163953,6.120357324891675,0.10705889233954691,0.07254320610523765,82.0,5.9304,0.0723219512195122,7.0,77.0,87.2,0.0,2.2222222222222223,73.0,115.0,2.0454545454545454,0.0,4.32774616771566,11.960205333852215,0.3618454739624235,162.61113790473007,2.7636106348088436,2.91812039885147,132.21340262052576,0.4222222222222222,0.4358974358974359,0.7058823529411765,0.1111111111111111,46.2962962962963,45.98570643808977,46.65232582800584,64.1025641025641,0.6375464684014869,0.36245353159851296,3.459062919212336,2.6081268338398247,0.26463176719232645,0.7353682328076736,6.152613360417725,10.256308325373036,0.30788301235987353,0.6921169876401265,4.9909802364796265,7.483120540473459,1.1993389580197737,1.3119693190768351,1.6082985469495794,1.6876599414880797,0.282324597731737,-0.3888329892153739,-0.4395097176553314,0.0021205008247848927,0.18685772220499056,0.4253567221952079,4.191201429374545,0.7500761753140206,1.4446593457253163,1.63384458902855,1.9359540131915056,0.8542882594290605
1,87.83568440180522,88.62790697674419,18.584457479320307,9.015859043136949,9.124637042723409,0.2096908086094918,0.10172708970214873,85.0,20.7564,0.24419294117647058,31.5,71.0,109.20000000000002,0.0,2.3255813953488373,65.0,125.0,4.3,0.0,6.452092728775687,24.632891149126042,0.26192998173519727,499.30493764253214,3.817814185971912,3.405335970790188,376.1752050825414,0.3023255813953488,0.2894736842105263,0.45454545454545453,0.125,49.145299145299134,49.05390108651536,49.21281914452839,68.42105263157895,0.7683069712946691,0.23169302870533107,5.655776240097267,3.1058559952796645,0.33872186183852465,0.6612781381614751,14.336297400353216,20.03122320811482,0.36630520189246574,0.6336947981075343,10.897642589785718,14.333461631384312,1.5492064177097216,1.2910657565479737,2.2658915319770045,1.6926057445577516,0.8070073486782876,0.9513093612429975,-0.9440407349600017,0.0013391120199249633,0.15127104930132593,0.3132553030050973,4.897081324419227,0.643580511265028,1.4944811650841858,1.519884676617356,1.5726345454923032,0.8833454251840624
1,84.16691030286547,92.36585365853658,16.826699167633823,12.006248373242993,12.14643558563159,0.18217445626432183,0.1299857890950522,90.0,19.273799999999998,0.2141533333333333,28.0,77.0,108.0,0.0,7.317073170731707,62.0,129.0,4.555555555555555,46.875,8.588826969845691,22.048198949643865,0.3895477807262993,594.9176384232198,2.567079186372291,3.481426955263147,226.3978904825047,0.4146341463414634,0.42105263157894735,0.8125,0.125,45.80152671755726,45.8351666602309,45.80653494410313,71.05263157894737,0.7492195629552549,0.2507804370447452,7.442084075352508,4.3056313751250865,0.39133067493723234,0.6086693250627676,13.792565816224034,17.201401254787502,0.4385700812204122,0.5614299187795878,11.081955765556167,12.538474123007685,1.2760041442573662,2.7086457498351644,1.961663018287496,1.7310817463108736,-0.3314928088554794,0.7153793132548492,-0.5851278805988765,0.002938877652297091,0.5201198021727943,0.34956341011717385,4.7721861509595485,0.7138155013449397,1.1907210494858396,1.4193642893445086,1.6913877720217498,1.0453760009010895
1,87.66408695652993,89.04651162790698,14.953823349886925,10.123052428797871,10.244740300893557,0.16793272500525927,0.11368275122442112,87.0,10.3782,0.11928965517241379,16.0,75.0,98.80000000000001,0.0,4.651162790697675,71.0,137.0,3.3076923076923075,15.625,7.2441253382569455,20.12882436376082,0.35988814882298825,458.09361547335095,2.778641095213869,3.3679243489458743,223.7231143019519,0.27906976744186046,0.275,0.36363636363636365,0.0,48.888888888888886,48.66626439973664,49.18574729355104,62.5,0.6737918215613384,0.3262081784386617,5.946919678164199,4.137867955784983,0.321353187900797,0.6786468120992029,11.410632455992026,16.582130056822997,0.36177366671246775,0.6382263332875323,9.098581941826847,12.08488701728123,1.2197868820342121,2.925893631286998,1.8793295995838841,2.0142021566220816,-0.7493401205015928,-0.2943834462219499,-0.45390380716647183,0.00383220497384813,0.6558304069412084,0.350763023657231,4.460921149950308,0.803619728836068,1.4193637057023578,1.622902673365369,1.9432240559601126,0.8833454251840624
1,81.94737966312383,95.1,11.247335866887061,7.750930465235969,7.829491980286187,0.1182685159504423,0.08150294916126151,94.0,11.8608,0.12617872340425532,16.25,84.8,105.0,0.0,2.5,75.0,120.0,4.0,39.0625,5.536286872506054,14.895135018974091,0.37168423552077123,259.0674812473065,2.6904557805603133,3.120383012715373,160.2988084561008,0.35,0.3142857142857143,0.45454545454545453,0.125,44.54976303317537,44.30706936505938,44.83688221122476,68.57142857142857,0.6495945369184806,0.3504054630815194,4.475077182515815,3.286735702630707,0.39495616436134195,0.6050438356386582,9.360927735068708,11.586115793150425,0.4260223279949977,0.5739776720050025,7.336664223291545,8.515888407889017,1.549571189010306,1.8509450290779066,1.831646246475072,1.9928161540903893,-0.5091317809854541,-0.26266806204013626,-0.4129256109266476,0.000990303119992409,0.20367260955693803,0.3388064711543417,4.58418371977919,0.8655661167343041,1.5441588569320037,1.5082305814816892,2.0611457213551865,0.9313374166052885
1,84.88600969452077,92.21951219512195,10.529748798337858,5.932958789676531,6.005126015458665,0.11418135433267712,0.06433517862383965,93.0,8.8956,0.09565161290322581,10.0,86.0,99.0,0.0,0.0,72.0,116.0,2.5625,31.25,4.246265327410574,14.250461081159477,0.2979738903342965,190.10166323769906,3.355998738272341,2.9859560265736564,191.29811763268123,0.34146341463414637,0.3611111111111111,0.46153846153846156,0.0,52.32558139534883,52.60883015791503,52.06076066597758,52.77777777777778,0.6335227272727273,0.3664772727272727,3.3817003764227005,2.57203899958469,0.45023942701658476,0.5497605729834154,9.562042682210231,10.566124207543217,0.465201415824535,0.5347985841754648,7.171769575645458,7.689550226918847,1.5671940491313412,1.9571525984609526,1.8867902008756665,2.354387824315361,-0.6994360725810758,-1.175666846629312,-0.26108269543856755,0.004359024934253298,0.37421890088594134,0.331399918775531,4.247557492317427,0.8741294818131125,1.50784767166845,1.58663702520206,1.6929455335270227,1.0453760009010895
1,81.75358835140852,95.65,15.017169660604644,9.358939234215788,9.481283501831662,0.15700125102566276,0.09784567939587858,94.0,14.825999999999999,0.15772340425531914,19.5,82.6,110.2,0.0,5.0,71.0,124.0,4.0,23.4375,6.704279858497304,20.38542253895582,0.32887617834193345,429.3601413811133,3.040658052649521,3.3397918352467024,247.94039679895621,0.25,0.2631578947368421,0.4,0.0,49.999999999999986,49.74906837146754,50.24476825681381,68.42105263157895,0.7728337236533959,0.2271662763466043,5.893796917545018,3.1953914182443244,0.33152787651966054,0.6684721234803396,11.73761184768505,16.667150932443473,0.3746005894039536,0.6253994105960465,9.287313228059544,12.000092635489127,1.659945392692059,2.158486433757644,2.1122384262872242,2.225609865627096,-0.7693709317621416,-0.6321595112428966,-0.4474764179349013,0.0011680995795629375,0.2940761686167127,0.37590357986170986,5.003055907333277,0.8355759969274625,1.6902788231021981,1.4030099132588076,2.1075897261043184,0.7982892142331044
1,93.7855934942071,83.1086956521739,6.989605809484587,5.157518783291051,5.211874553712547,0.08410197939740806,0.0620575108635596,82.5,5.1891,0.06289818181818181,7.5,77.0,86.0,0.0,0.0,73.0,108.0,2.090909090909091,0.0,3.685351839623753,9.235088991821826,0.3990596996831685,106.92269917575932,2.5058907246057296,2.736040023592323,92.56849538205918,0.5,0.4722222222222222,0.7058823529411765,0.09090909090909091,46.5648854961832,46.312001864067156,46.833537805554435,63.888888888888886,0.5756056808688387,0.4243943191311613,2.7981324941012806,2.402650052073184,0.4809103033796286,0.5190896966203716,6.404321501494171,6.653685805053326,0.49393572085419135,0.5060642791458086,4.941906481766222,5.002212613688836,1.365046362435853,1.9955463034793866,1.8502942625633871,1.7770064344222316,-0.027615254128532385,0.2522902707882855,-0.536725696624214,0.0014072724024514673,0.28461605020245306,0.5229669350621524,3.918160403188223,0.7837021583652408,1.2824204914009842,1.5813854070620499,1.8821498877254197,0.8405420367912846
1,92.818006695787,84.1304347826087,6.859247434108121,3.7623869492059896,3.803241573269632,0.08153110645193115,0.044720878466014344,84.5,3.7064999999999997,0.043863905325443785,6.0,79.0,87.0,0.0,0.0,74.0,106.0,2.090909090909091,0.0,2.68929790694955,9.34031124435445,0.2879238000312932,78.91328723983219,3.4731411571093265,2.6041202448453995,129.76087761191386,0.5869565217391305,0.5897435897435898,0.7391304347826086,0.2,52.17391304347826,52.35347718045406,52.00037807369401,56.41025641025641,0.7001569858712716,0.29984301412872844,2.251262272189053,1.473246260967441,0.29041991661102695,0.709580083388973,5.0335518493383535,7.8679584341452,0.32181212727584296,0.678187872724157,3.89902718881001,5.660177756347018,1.5082302655731885,1.0458353830362777,1.7026996039692306,1.4544243223910978,0.3205674990214078,0.6865585477816571,-0.7373942262857258,0.0007375386152709368,0.06614588547783483,0.618436068523128,4.004555369515116,0.7847257392480994,1.2684807736230506,1.538676322974048,1.5455843154483182,0.960619470618611
1,89.83074482084898,87.0,4.725815626252608,3.0,3.0359824299146214,0.054319719841984,0.034482758620689655,87.0,5.9304,0.0681655172413793,7.5,82.4,91.0,0.0,0.0,79.0,99.0,1.9545454545454546,0.0,2.146763763755841,6.216945110266378,0.3453084635106033,41.928677252181934,2.8959614538069185,2.3294812716465496,72.01613359905934,0.627906976744186,0.6216216216216216,0.9130434782608695,0.25,48.999999999999986,48.90385946347658,49.090592914849445,56.75675675675676,0.5476190476190477,0.4523809523809524,1.5888329817518385,1.4440795870236987,0.38295821062964525,0.617041789370355,3.8472705279074337,4.883535193807852,0.40050429117333824,0.5994957088266618,2.9432873423102595,3.600991658058821,1.5917189248473986,1.2758748584889417,1.875234141716525,1.7281854065807287,0.6016684370867242,0.8896478898632534,-0.6152532587012105,0.0005826184225941031,0.10954914950888964,0.07492347421521739,3.908027254349906,1.1198381957107613,2.053181816243794,1.5209059109573162,1.8477052006112364,1.0095376287817857
1,99.3591158194436,78.44897959183673,4.8949856336603785,3.4034296427770228,3.4384146107560953,0.06239705932605582,0.04338398868264155,79.0,5.9304,0.07506835443037975,8.0,73.0,83.0,0.0,0.0,71.0,90.0,2.0416666666666665,0.0,2.4313262877965385,6.40250117349429,0.3797463244305186,48.90382010245446,2.633336876926028,2.39631289515119,67.43976977889874,0.6530612244897959,0.6511627906976744,0.8928571428571429,0.25,51.88679245283018,51.7013605193693,52.0739549113823,58.139534883720934,0.7787769784172663,0.22122302158273385,2.146248582695724,1.1439014985119444,0.3613203951210018,0.6386796048789982,3.8485391156214175,5.116714566216065,0.41396106197199056,0.5860389380280091,3.1158976478048412,3.7073763357950003,1.2183945437846984,1.489330807091839,1.5266507347730607,1.0663789327081494,0.6279073743141481,1.732514939566669,-0.8090460493217534,0.0009543473805851592,0.15133305494812158,0.06497549619081422,3.993772661151523,0.9615626675235034,1.9818560938492966,1.5047475149024847,2.287040172737905,0.8021014063021725
1,90.50838324902685,86.18181818181819,9.443276745235396,8.002906448778905,8.097618697581936,0.10957388628437695,0.09286072883604214,85.0,5.9304,0.06976941176470589,7.25,80.0,89.4,0.0,2.272727272727273,72.0,119.0,2.3157894736842106,0.0,5.725881092523165,12.236978072083629,0.4679162664829554,220.12348473558743,2.137134508095641,3.0496364893937375,104.60827245063838,0.6136363636363636,0.5882352941176471,0.85,0.16666666666666666,49.999999999999986,49.59211982449316,50.44402178275661,55.88235294117647,0.7650689905591865,0.2349310094408133,5.008326400438906,2.7753163697821823,0.5231198582896537,0.4768801417103463,8.850642221202328,8.450429847583276,0.5665784871022395,0.4334215128977603,7.190869247214227,6.289361873883044,1.1249971641673622,1.8093213825249892,1.686503627934452,1.0985043521384426,0.09746032756282119,1.0504432550227976,-0.8249833232918687,0.004241288728954647,0.2771876165849098,0.42547174689785816,4.140361163698487,0.8413053841142745,1.5661657226506474,1.5116983768555885,1.728832069363635,0.868545939328661
1,94.6489676026036,81.8913043478261,12.894836625339728,8.983936281558941,9.045228665775213,0.1574628311031663,0.10970561957836773,79.0,8.8956,0.11260253164556962,10.0,73.0,87.0,0.0,4.3478260869565215,64.0,125.0,3.5384615384615383,23.4375,6.3959425269526,15.981965846642028,0.40019748435993885,321.1327685996549,2.4987663318258067,3.213654733485016,159.7407926959161,0.2826086956521739,0.27906976744186046,0.5,0.0,59.31372549019608,57.53120674659933,61.22459359374154,62.7906976744186,0.8813325991189426,0.11866740088105729,6.031169040907408,2.2130809458145158,0.35951406107949613,0.6404859389205038,9.582705439831534,12.7904256683136,0.4321030988125486,0.5678969011874514,8.006348841593677,9.178581482162228,1.7668241710662465,1.2520442538940095,2.0333740380554413,2.0975505967599517,0.21406430013886357,-0.04030031371575582,-0.4487425795814217,0.0008253543735007137,0.11649718766370276,0.406781725623659,4.561286684176786,0.6306654069626996,1.4172010336547232,1.4711043287788335,1.7904196341317316,0.8405420367912846
1,81.22955104675083,95.8,11.08290436802417,6.053183099909141,6.079211718200794,0.11568793703574291,0.06318562734769459,94.0,14.825999999999999,0.15772340425531914,20.25,84.0,106.60000000000001,0.0,0.0,81.0,114.0,3.6363636363636362,0.0,4.298651830208503,14.854376345918425,0.2893862206062697,200.60260405835854,3.455589550549369,3.0093066763372933,205.3225107235337,0.325,0.34210526315789475,0.5384615384615384,0.0,41.798941798941804,41.69221494528203,41.90790910750026,57.89473684210527,0.5115465360391881,0.48845346396081163,3.101357936877261,3.0305462422335334,0.4120175856033193,0.587982414396681,9.534815620517449,11.390337471248042,0.41983285437836015,0.5801671456216397,7.089821223764924,8.334386547168094,1.5183477421978004,2.3519630077350717,1.9180545368431843,2.2835592661761237,-0.9396856044417206,-0.8720121186591188,-0.34459588516873885,0.003245669998133929,0.41996607505737815,0.35242834698467584,4.265311532225104,0.9313994410544103,1.500414953580978,1.4566875973752451,1.9741125242683666,0.9313374166052885
1,95.50473785449249,81.76595744680851,8.1486535723166,6.48074069840786,6.5510260287214175,0.09965826643218324,0.07925964424282317,81.0,8.8956,0.10982222222222222,11.5,74.0,87.0,0.0,2.127659574468085,72.0,105.0,2.35,0.0,4.632274928638493,10.655428862847696,0.4347337857784265,155.06548215332765,2.300258302237582,2.8974852438249474,98.04095482266948,0.6170212765957447,0.6388888888888888,0.8695652173913043,0.3,51.80722891566264,51.81173957479024,51.80678452129788,58.333333333333336,0.675983436853002,0.32401656314699784,3.809345233909774,2.637338725980331,0.4862297134501712,0.5137702865498287,7.4300490623900455,7.6375739067903305,0.5164018184137732,0.48359818158622686,5.9040977371921235,5.713496772434551,1.087844274826035,0.8945412160954815,0.7409964921804402,0.9478234568723213,1.0,1.2091977310445752,-0.26878989925735874,0.008971863488328269,0.2580653191888273,0.42521527016547145,3.836949363311668,0.8514887139540008,1.0375046026079882,1.609249477031741,1.8372045532663352,0.8272791906753929
1,95.88527378150738,81.40425531914893,8.835844917813795,5.162574349396189,5.2149913965126045,0.10854278911062425,0.06341897397324121,79.0,5.9304,0.07506835443037975,8.5,74.4,87.0,0.0,2.127659574468085,71.0,104.0,2.0434782608695654,0.0,3.6875557803035655,12.023929442035708,0.30668474878202917,139.29479554505548,3.260677304533107,2.8509050001956022,156.82461537181305,0.5106382978723404,0.5,0.65,0.2,53.24675324675323,53.21001384187526,53.262539062772326,52.5,0.7096247960848288,0.29037520391517135,3.1091263510296048,1.9888578520235065,0.3788714858329182,0.6211285141670819,7.401033664757127,9.476264027568291,0.40735238119516215,0.5926476188048376,5.676352965308578,6.846719487307055,1.3059659938454327,1.690529462152286,1.654511107014784,1.5052066215697044,0.08304340691266354,0.6784766241554019,-0.5883181800659029,0.000514531770805665,0.16433129888795325,0.4304304795339764,4.1313153838142105,0.8761430566065486,1.4915171713802484,1.5808542629120954,1.9042617981115326,0.9454619322004489
1,90.02396021417327,86.4090909090909,6.700635797039457,3.4133799657667288,3.4402026775905865,0.07754549581003053,0.039502556153007906,86.0,5.9304,0.06895813953488372,7.5,82.0,92.0,0.0,0.0,73.0,104.0,2.4444444444444446,23.4375,2.4325906419804215,9.118300875311867,0.2667811333761479,69.68396001134023,3.748391002560329,2.5501029328196867,136.71582783862792,0.7272727272727273,0.7368421052631579,0.8928571428571429,0.5,44.537815126050425,44.73046579084648,44.36539233734462,60.526315789473685,0.47305389221556887,0.5269461077844312,1.6797108594721208,1.7728105208558367,0.4105226064935754,0.5894773935064246,5.842281209940346,7.0007971772285424,0.41470804129321903,0.585291958706781,4.2984693966254195,5.106565296730683,1.3127729895921099,0.5155634208778768,1.3422781569046047,1.5293946737164017,-0.08903594169695239,-0.8841944074550714,-0.13706401727806075,0.0002459045218754143,0.020544199722799257,0.49048940727991175,4.30649852879183,0.8190449173480973,1.7182746186190978,1.7501262478928237,1.7411911908338265,0.6203899566633292
1,100.59316773182934,77.3265306122449,4.094649736251568,3.5325863990377737,3.5699072240959544,0.05295271498451486,0.04568401518945656,76.0,2.9652,0.039015789473684205,5.0,74.0,81.0,0.0,0.0,70.0,90.0,1.4848484848484849,0.0,2.524305606365093,5.259047422037003,0.47999293480174504,41.70603386136337,2.0833639987076835,2.3271690014613475,43.82604026627338,0.6326530612244898,0.6341463414634146,0.8846153846153846,0.7142857142857143,50.413223140495866,50.389472391117074,50.4381909298474,58.536585365853654,0.5993322203672787,0.40066777963272127,1.9542642953731237,1.5978709238739222,0.33968269947351976,0.6603173005264804,3.0650940218909946,4.2734972123779515,0.38830388718469755,0.6116961128153026,2.5704036938973345,3.2261408767724187,1.269868688398183,1.2129955321913384,1.4593572160480557,1.4508255765565985,-0.01052649744811518,0.08427615770284635,-0.5070335291969661,8.775422300423562e-05,0.06806134046540319,0.1811145184654852,3.767699773420965,1.0322479497120292,2.041739371382377,1.6972094337336696,2.627561212023271,1.031273236674222
1,94.98495567918212,81.93617021276596,9.358567930486386,5.441387291139449,5.480223557624806,0.11421778570056092,0.0664100760019616,78.0,4.4478,0.05702307692307692,8.0,76.2,89.60000000000001,0.0,0.0,70.0,108.0,2.1363636363636362,0.0,3.8751032400147674,12.501246314679582,0.30997735285516526,152.19012101391783,3.226042131107697,2.8893565723280896,161.31818921004466,0.48936170212765956,0.47500000000000003,0.7894736842105263,0.5,43.67816091954025,43.839769434997464,43.561608991986766,55.00000000000001,0.44640234948605,0.5535976505139502,2.5991451586157237,2.8944391128123215,0.43925324835032264,0.5607467516496774,8.2853489323816,9.361311472703644,0.439884406945974,0.560115593054026,6.140136907548254,6.928633713321504,1.5759736290576523,0.6427071641300943,0.9332664649275579,1.254620046992605,0.9263128652200068,-0.4064793462880274,0.0,0.004050779043299394,0.12578578881752892,0.32938194267729504,3.992335192843157,0.7736612451230078,1.044056446204106,1.6260566852996954,1.8488854269085513,0.8272791906753929
1,87.62046540028655,89.47619047619048,10.986106736743759,9.838946998982182,9.919185647140546,0.12278245953784934,0.10996162159586259,87.5,8.8956,0.101664,12.75,82.2,100.60000000000001,0.0,7.142857142857142,70.0,118.0,3.5,46.875,7.013923434941352,13.424994890311055,0.5224525962392259,295.81829017007647,1.914049250014847,3.1779951324771885,102.78440560501211,0.6190476190476191,0.6315789473684211,0.7916666666666666,0.3,57.37051792828686,57.05329324034788,57.69499573584045,47.368421052631575,0.7503149407911314,0.24968505920886885,6.1012293843126395,3.519588044075613,0.47174191072341265,0.5282580892765871,9.220752392711015,9.757469606265353,0.5318729792682038,0.46812702073179624,7.818160739191984,7.334702213355091,1.1000159583229618,1.6106086707350107,1.53102300458078,1.440745116037395,0.33059174510042766,0.33598506953009544,-0.5560520318707748,0.0013969547539586385,0.21170610940633908,0.4384456485877837,4.660058196536772,1.0991666226067522,1.601777729636539,1.7259695465557983,1.8828553313819765,0.8987195704631268
1,93.2642401297885,83.41304347826087,8.950669961160628,5.992588014465128,6.059636286048192,0.10730539958649697,0.07184233741605314,82.0,9.636899999999999,0.1175231707317073,12.75,75.0,92.0,0.0,0.0,71.0,105.0,2.5555555555555554,0.0,4.284809909388741,11.693907591026822,0.36641386773713164,157.41317910740878,2.7291543471750046,2.904011199954457,127.65791495005455,0.43478260869565216,0.425,0.7058823529411765,0.2857142857142857,48.924731182795696,48.96213930270979,48.89420633967988,67.5,0.7431930693069307,0.25680693069306937,3.6942830525999586,2.1716143973802278,0.32323726629569427,0.6767627337043056,6.64844943653881,9.62006210152832,0.37295592023385704,0.627044079766143,5.378178464077799,6.973575264101284,1.5732980364219162,1.8884767727470697,1.8952267650811776,2.0559463363778714,-0.5246180958360398,-0.35991577348308024,-0.41489459991456323,0.0009807278987124387,0.21930197933477216,0.40315145990339385,4.449995043334096,0.8540214268150402,1.4737015554557145,1.4812167317347136,1.9897663715000706,0.7204646029639583
1,84.6194157485583,92.36585365853658,15.50121946422438,10.240849574132021,10.37053889260712,0.16782413468001048,0.11087267825175941,95.0,13.343399999999999,0.14045684210526316,19.0,76.0,101.0,0.0,9.75609756097561,66.0,126.0,2.5625,31.25,7.333078375521324,20.92868691288194,0.3503840640383271,482.145569742992,2.8540110770865823,3.390148290506487,238.92281711296818,0.5121951219512195,0.5135135135135135,0.7894736842105263,0.25,50.99601593625498,50.90077241075092,51.06458431677409,51.35135135135135,0.6421930870083432,0.35780691299165673,5.876943213819709,4.386751616354606,0.5057763350556237,0.4942236649443762,14.884053886497247,14.713085189764996,0.5206947821643895,0.47930521783561053,11.315332996306722,10.856299220841139,1.1525571424407126,2.1409673656489607,1.7613600088232175,1.9416718412501877,-0.43253807701009883,-0.885865601046536,-0.415780205097935,0.004394076150284619,0.4428854008731447,0.37452663735153546,4.784142858171086,0.8139122384767986,1.3584042361400115,1.6184329124721935,1.991506541391799,0.784032000675817
1,95.53448179518028,81.63829787234043,13.321159258724435,6.711443828333033,6.768354897559943,0.16317291768570458,0.08220950219745962,78.0,8.8956,0.11404615384615384,11.5,71.2,87.4,0.0,2.127659574468085,68.0,117.0,2.9375,0.0,4.785949645541816,17.90824709483488,0.2672483588258164,269.259525248653,3.7418377586811182,3.13714118568207,268.03902068497837,0.5319148936170213,0.45714285714285713,0.6875,0.3,57.333333333333314,56.217753370723564,58.47798858863368,51.42857142857142,0.7664092664092665,0.23359073359073362,4.20052906720623,2.3190036174568114,0.4483488530190362,0.5516511469809636,11.991157562693509,13.30103207711041,0.4696519397528902,0.5303480602471097,8.98421683113743,9.54712606217436,1.5628911370285525,1.1351966623897902,1.8653520317830214,1.8298703922682613,0.6315748377020736,0.3369173030339718,-0.5312559406579517,0.0011432545042810176,0.1195659181412698,0.4957840682360666,4.3678986918730125,0.6437529523994295,1.3094811934932509,1.4475874521095413,1.751996527235276,0.9454619322004489
1,96.45291122845343,80.55319148936171,14.325120093036777,8.229057740977872,8.319960284186145,0.1778342959251792,0.10215681823189644,77.0,14.825999999999999,0.19254545454545452,19.0,67.2,92.80000000000001,0.0,4.25531914893617,64.0,119.0,3.357142857142857,0.0,5.883100336150777,19.392868104881583,0.3033641184137111,358.42489919047426,3.2963687506254638,3.261368281725922,255.70417762373162,0.40425531914893614,0.39534883720930236,0.7647058823529411,0.375,50.22421524663676,49.92077325420681,50.50785830311468,65.11627906976744,0.7242375601926163,0.27576243980738363,5.00666222813829,3.0894084295289357,0.5320075337912695,0.4679924662087303,14.144934311147106,13.26665619765081,0.5482076428812986,0.4517923571187014,10.61003848563551,9.63194194103949,1.5113025083665785,1.1068491485788483,1.8128392918165375,1.6942722741831457,0.2673621356517444,0.0642270435752037,-0.6071212077866502,0.0008027958148044066,0.08781187684573225,0.3588072070152899,4.724385660004151,0.5852797866555268,1.32554069914287,1.4346263886062536,2.1005709668490726,0.7090964491503368
1,91.90317005308029,84.4888888888889,16.156369729251768,8.453079051715147,8.547714603749116,0.19122478637988677,0.10004959424702303,79.0,16.3086,0.20643797468354427,27.0,69.8,102.2,0.0,4.444444444444445,65.0,117.0,4.090909090909091,0.0,6.044146959958282,21.871622360799986,0.27634653068951437,415.3037826951308,3.618645030588559,3.325335996757054,316.5825502672739,0.2222222222222222,0.1951219512195122,0.5,0.2,47.76785714285716,47.79973834552539,47.78607700175739,78.04878048780488,0.7923027989821884,0.2076972010178117,5.381924960371499,2.755544094333087,0.20764746792620825,0.792352532073792,9.966537806122096,19.468846623582635,0.24915617208378754,0.7508438279162125,8.009275626419996,13.9037587023869,1.4567162964111748,2.6465606143420173,1.967703527891207,2.0376031132518073,-0.8572484039674215,-0.05400126891118617,-0.47358851900772403,0.0015832693953446886,0.4267190520933672,0.24631541803521095,4.61385809623352,0.6260699096751413,1.2972415625837452,1.3722124301571617,1.7545932922427583,0.6102058995921861
1,83.62386504139545,93.3170731707317,12.321605058575452,8.023403267940607,8.104723219304805,0.13204020057542956,0.08598001411018423,92.0,8.8956,0.0966913043478261,10.0,84.0,99.0,0.0,2.4390243902439024,72.0,123.0,2.7333333333333334,31.25,5.730904748010495,16.157388958266676,0.3546925040186253,290.9003493624388,2.8193434839194933,3.1707143527835777,182.21291710656772,0.5121951219512195,0.5135135135135135,0.7894736842105263,0.2857142857142857,55.83756345177664,54.94655763942779,56.75905725823455,59.45945945945946,0.8093203883495146,0.19067961165048541,5.168940773306337,2.508958308715351,0.4274659427558377,0.5725340572441625,10.56384303402109,12.225646743681171,0.4703330123562552,0.5296669876437446,8.316030554458798,8.825001702440453,1.1686930128122222,1.914522863675867,1.533213547052711,1.4776855335018,-0.3358757598854787,0.1471194812948382,-0.5290035781783758,0.0005764320978433334,0.20305900268692173,0.45207507171171013,4.424267553240269,0.7926069704032056,1.5322726536483384,1.573341886215156,2.168000091684009,1.1760480010137258
1,86.21487135373933,89.69047619047619,11.939865781894836,7.064165840663018,7.083388330728624,0.13312300579760636,0.07876160480696755,89.0,5.9304,0.06663370786516853,8.5,83.0,95.4,0.0,2.380952380952381,66.0,122.0,2.0,23.4375,5.008711922435869,15.683629028773764,0.3193592448053127,246.78711882081873,3.1312699296042563,3.0992925976932018,196.4387038594708,0.35714285714285715,0.34210526315789475,0.6153846153846154,0.0,39.130434782608695,38.072465554529074,40.140373691066536,68.42105263157895,0.5728250244379275,0.42717497556207235,3.827531841800927,3.305298776207682,0.19567463011597552,0.8043253698840246,6.937672936249934,14.065735449731035,0.23119507945187237,0.7688049205481278,5.602736196287256,10.21689565723905,1.442696483651306,1.4114613044800581,1.5370983147448403,1.7006007936499161,-0.39269163025481646,-0.19634994203571754,-0.38416084919500826,0.0009544173111105544,0.10505194832622722,0.43259062074154864,4.347691161328112,0.7884258186581505,1.417882134163389,1.538559019133073,1.6976207116588748,1.0271080805292878
1,85.80940758770262,90.45238095238095,16.47496605119176,9.5073783927242,9.574674419733679,0.18213966152936403,0.10510921097510303,86.0,15.5673,0.18101511627906977,24.25,76.0,105.80000000000001,0.0,4.761904761904762,68.0,123.0,4.666666666666667,23.4375,6.770317209847056,22.10246371875824,0.30631504686516575,470.11009393760145,3.264612725473397,3.3791696861752256,288.62393728228886,0.3333333333333333,0.31578947368421056,0.6666666666666666,0.0,42.0,41.62342113004326,42.42233460544046,73.68421052631578,0.6856449001618995,0.31435509983810034,5.635822921277779,3.816084380618437,0.3940947748708439,0.6059052251291562,13.87525664183762,17.20453880701733,0.4193471139038161,0.580652886096184,10.589741424531077,12.46111262211696,1.6605511953956509,2.891968039571137,2.307335959619233,2.5830729408062587,-0.5892830278261023,-0.3685412583046004,-0.40465420868623575,0.007698553947006062,0.7808687014531858,0.3681087721570462,4.814587363100416,0.7001557891040445,1.5258853595745276,1.3378556154852081,1.7998110703493098,0.8987195704631268
1,102.27700397738727,76.3,4.660953743164414,3.0,3.029335034013128,0.06108720502181408,0.039318479685452164,76.0,5.9304,0.07803157894736841,7.0,71.8,80.2,0.0,0.0,68.0,88.0,1.5625,0.0,2.1420633450366635,6.258327785172863,0.34227407361301976,42.11535717776251,2.9216352540058734,2.3314105982298448,73.13820435314213,0.52,0.48780487804878053,0.65,0.09090909090909091,47.66355140186915,47.546812671158264,47.7847509265785,53.65853658536586,0.5374149659863946,0.46258503401360546,1.5712256362470667,1.457737973711325,0.4530069474598351,0.5469930525401651,4.212217006380789,4.628595311519805,0.46186767970696974,0.5381323202930304,3.1789559692486726,3.4313914493848645,1.4430468239760554,1.165313679489354,1.7539611564257545,1.5072768859066916,0.7094718133941953,0.9606945087290173,-0.7116891570578328,0.0006811945224116625,0.10250912010064933,0.10322613296551175,3.9260498815361102,1.0069197034486865,2.0221063000639528,1.5511074638833755,2.2840686701981965,0.7901398665684615
1,99.2625053506761,78.79591836734694,8.0051535271472,4.208127057650866,4.245147417433778,0.10159350500653012,0.053405393894041024,79.0,8.8956,0.11260253164556962,12.0,70.0,83.80000000000001,0.0,0.0,68.0,96.0,3.0625,23.4375,3.001772526003984,10.96254099032423,0.2738208713338825,103.38056022849192,3.6520225617887747,2.721408991280437,160.1417881247934,0.5714285714285714,0.5714285714285714,0.7916666666666666,0.375,54.83870967741935,55.06653333298629,54.59584613904668,54.761904761904766,0.6847058823529412,0.3152941176470588,2.4882703554280687,1.6885093514065102,0.4820694403462181,0.5179305596537818,7.611426025822763,7.889454912601181,0.49624954262714976,0.5037504573728505,5.662388873447065,5.705022464800386,1.5519967540447657,0.8044562870848693,1.7062674686723902,1.3991517105027416,1.0,1.2444153201091819,-0.8817681123265909,0.0017698118975656536,0.08932296516480834,0.35175606830503714,4.334525028743768,0.6849707517127261,1.2762439987394574,1.3982479029442796,1.70552871520265,0.5729295759301233
1,91.5204919668105,85.5,8.134051309014126,4.590181634953073,4.632807079907993,0.09513510302940498,0.053686334911731845,85.0,7.412999999999999,0.08721176470588235,10.5,77.0,92.4,0.0,0.0,71.0,103.0,3.3846153846153846,0.0,3.2758893021319895,10.936922742241869,0.29952568737451757,112.55744720686178,3.3386118191246523,2.758344344739,146.05655812840763,0.5227272727272727,0.5,0.7368421052631579,0.2222222222222222,45.07042253521126,44.41198037248342,45.66832406675645,60.526315789473685,0.5033112582781458,0.4966887417218543,2.32992949004287,2.3145502494313788,0.40995586146047003,0.5900441385395301,7.002670542781695,8.40112399259914,0.4176774047528341,0.5823225952471659,5.218523074554424,6.161819016985479,1.5102184645419159,1.8584344161064204,1.858628911581563,1.9842532026562316,-0.48071687823073006,-0.4104548573640132,-0.432403161507382,0.0007910496579075084,0.21289992300987381,0.3912993318695084,4.317052925307971,0.9143724460288283,1.617335979843092,1.521298397639018,2.218022476159611,0.9926239306613268
1,96.53190049692184,80.875,11.025357619519554,7.264017996041069,7.342424214079465,0.1363259056509373,0.08981784230035325,77.5,6.6716999999999995,0.08608645161290322,12.25,73.0,86.0,0.0,2.083333333333333,68.0,114.0,2.0869565217391304,0.0,5.191877952123896,14.667672294736846,0.35396740858376563,239.24096517709938,2.825118854871499,3.085805655792827,165.75167022774949,0.4375,0.41463414634146345,0.7058823529411765,0.09090909090909091,49.52380952380951,49.24683781211336,49.80634597839935,65.85365853658537,0.7233870967741935,0.2766129032258064,4.415880433163923,2.7306632416192285,0.3430109227732039,0.6569890772267959,8.590435341081513,11.888861644265555,0.38536424809651915,0.614635751903481,6.829918716547886,8.625588470812271,1.3970333062329006,1.3082914034011681,1.7976967144194345,1.479918164339448,0.8068998592227619,1.1506535131863584,-0.7428958481679669,0.0014633593013399183,0.1567033370554087,0.47562426104897115,4.4707136787344055,0.7381811576663856,1.5976186682797495,1.5513969986159237,1.683323539145853,0.8144736980218353
1,85.198212385471,92.48780487804878,10.59509780799477,11.30044246921332,11.443394690880938,0.11455670098306582,0.12218305412387818,89.0,7.412999999999999,0.08329213483146067,10.0,84.0,102.0,0.0,9.75609756097561,75.0,119.0,2.5625,15.625,8.091701985716048,12.380919977416035,0.6535622555089666,314.733280726329,1.5300761198659527,3.2049127787459635,75.77499999766233,0.4634146341463415,0.47368421052631576,0.7222222222222222,0.1,51.01351351351352,50.9747086759328,51.082035731667965,55.26315789473685,0.677564604541895,0.322435395458105,6.661215720256691,4.595147942709202,0.594126994747583,0.4058730052524171,9.543167780252597,7.887656699243965,0.6191029277325896,0.3808970722674103,8.229333088223072,6.454863004762874,0.9664766637805198,1.999310916307771,1.4359156483449838,1.5689833480719135,-0.286477075018011,-0.39140882904183005,-0.4334432185401795,0.0023013422972267333,0.3232491675945836,0.518777233626972,4.222690418935626,1.2891597603284284,1.7321839800821923,1.9574801409906488,2.0692542320764025,1.1760480010137258
1,92.72803410727177,84.5111111111111,14.776551175645304,10.626938325868753,10.749182573769428,0.17484743699816954,0.12574604908337994,79.0,11.8608,0.1501367088607595,27.0,71.8,100.0,0.0,6.666666666666667,58.0,112.0,2.5,15.625,7.600819890124628,19.596207889190286,0.3878719767163428,467.9315759899874,2.5781702727426388,3.377152462304038,202.08944255358065,0.4222222222222222,0.4,0.625,0.1,49.16943521594685,48.82033947954873,49.54763585570964,67.5,0.6786073656671361,0.32139263433286375,6.261733172659259,4.309265301865326,0.4190508292339964,0.5809491707660037,12.685435757871934,14.936233905147166,0.45299664175786875,0.5470033582421311,10.003239042747037,10.992289359162818,1.1915525160780196,2.1870658788223474,1.6844444726179542,1.7225612399971968,-0.34580756802902535,-0.04732173108150617,-0.4825717333216469,0.0018102000654930366,0.3393468767708162,0.41018282228641567,4.561313030086847,0.8733915929930302,1.393986766897762,1.5399268258579446,2.318136514277437,0.8542882594290605
1,98.6870454951531,79.20408163265306,15.464986787143744,8.206958429690422,8.29164216468813,0.19525492207421888,0.10361787246968067,76.0,16.3086,0.21458684210526313,23.0,65.6,90.4,0.0,4.081632653061225,62.0,120.0,2.5789473684210527,0.0,5.863076401823279,21.2291146844066,0.2761809189400573,391.02750728225004,3.620814949265345,3.2991774193799,307.4667832358715,0.40816326530612246,0.3684210526315789,0.7142857142857143,0.2,52.09302325581396,52.25505638311058,52.003975679790635,65.78947368421053,0.782554902567275,0.21744509743272505,5.187956593594561,2.7347254714605853,0.2961923153148325,0.7038076846851677,11.553638544119163,17.809793560721918,0.33067765877390926,0.6693223412260907,8.955485950666699,12.741025666715126,1.3088187545319785,1.1689813086676617,1.661562535837211,1.3300081738695435,1.1187430564169367,1.3467457105587175,-0.7836267436521756,0.005614951410424485,0.23115682168667542,0.3139678251175777,4.65223516128398,0.6665734048528742,0.8663823439107248,1.371372059397366,1.5667455894128648,0.5729295759301233
1,100.47001616657455,77.79591836734694,9.103524024237204,5.273755777432247,5.322531725751497,0.11701801605131767,0.06778962043394021,74.0,10.3782,0.14024594594594594,16.0,69.0,86.80000000000001,0.0,2.0408163265306123,66.0,96.0,3.2666666666666666,0.0,3.7635982763594207,12.375326845744603,0.30412112126586593,146.3220616375585,3.288163596916997,2.872279921562926,162.76839693650817,0.7142857142857143,0.7073170731707318,0.896551724137931,0.5714285714285714,54.545454545454554,54.41940323678336,54.63766321744975,56.09756097560976,0.7655430711610487,0.23445692883895136,3.2973232212708408,1.8247704606449966,0.45169578299013846,0.5483042170098615,8.317248855699221,9.163628430451393,0.4783302426298781,0.5216697573701221,6.326490692048868,6.606885546360691,1.5917025917263778,1.5427403655042662,2.0439257481503317,1.6062342164016346,0.5501874175923334,1.2709605294644222,-0.7837104295288414,0.002413122402994273,0.2079382087725292,0.3525461891552677,4.303713293961587,0.6003383829806694,1.4353834007149544,1.3756249222266792,1.894072403037212,0.5729295759301233
1,95.8335960720778,81.34042553191489,4.424617869742764,2.345207879911715,2.348089983379749,0.0543962960706016,0.028832008986620614,82.0,4.4478,0.05424146341463414,7.0,77.2,85.0,0.0,0.0,72.0,91.0,1.88,0.0,1.660350350084028,5.878746621155635,0.2824327117806004,30.66439163267215,3.5406663544583346,2.1936044628693936,83.25872147164549,0.5319148936170213,0.5121951219512195,0.6666666666666666,0.3,41.57303370786517,41.32749272046385,41.80866402229951,60.97560975609756,0.4150197628458499,0.5849802371541503,1.0801234497346432,1.2823589374447562,0.39168184294805064,0.6083181570519492,3.6791836104613616,4.585113934926949,0.3934373722229794,0.6065626277770205,2.711370382864924,3.366579439186437,1.549998671773564,0.38426759393657517,1.5922228267000162,1.7134794128591495,0.024085362631266705,-0.9759146373687333,-0.18444753585141763,0.00013332389101000216,0.01169728852318902,0.06843159509339092,3.9059943100741474,1.0180499397619553,2.209036843603582,1.6244478718227298,1.8694033951863587,0.7090964491503368
1,87.88039283306783,89.32558139534883,10.409979027087784,10.956624436733197,11.087760985435741,0.116539728759379,0.12265942483195195,89.0,10.3782,0.11660898876404494,14.5,81.0,98.6,0.0,4.651162790697675,64.0,113.0,3.3076923076923075,39.0625,7.840230980977249,12.583195844215838,0.6230715215786136,309.9343318559768,1.6049521850499615,3.1982397962680813,80.78171066034322,0.37209302325581395,0.3902439024390244,0.5,0.0,51.45985401459854,51.36069669385117,51.57071734514908,53.65853658536586,0.6170170567235224,0.3829829432764777,6.159466242317096,4.852708572313495,0.4644394925683438,0.5355605074316565,8.575422511227035,9.208634340000225,0.5071174209345278,0.4928825790654721,7.465818630140411,7.3602896307019146,0.9889702349611703,3.146263863113922,1.630964261577687,1.788233233215284,-1.0285270544951306,-0.18974959578647788,-0.4500140552477551,0.003943861157182721,0.6986500117162527,0.40099518461134265,4.693479289485193,1.1370347996393764,2.1931761065093105,1.79284302166439,2.30571034504963,1.0095376287817857
1,91.55330465140251,85.31818181818181,8.62331271604663,6.976705426248923,7.058919885126125,0.10107239198349807,0.08177278602955584,83.0,5.9304,0.07145060240963855,8.5,78.6,90.0,0.0,2.272727272727273,74.0,107.0,2.2,0.0,4.9914101186252475,11.27863649542857,0.44255439215975745,176.86004353340422,2.259609254175045,2.9545998375407967,101.9412455981872,0.5681818181818182,0.5405405405405405,0.7,0.25,50.81967213114754,50.807587613775226,50.83001088571223,51.35135135135135,0.6024844720496895,0.39751552795031053,3.8745199395415115,3.1471831698777724,0.3900454017642621,0.6099545982357379,7.043916206044979,8.808568877986376,0.4248411130851426,0.5751588869148574,5.6845694770882975,6.6142137697156445,1.5366143952529745,1.237128080784168,1.9164058057713564,1.8420617900135787,0.4465675785694909,0.12271858582969575,-0.5600940330371079,0.0014314679772046703,0.14290219897191528,0.3910023666909659,4.40194695925137,0.9936484306448098,1.71009365006135,1.5825350294090617,2.17439596833706,0.7444679479959951
1,91.33626895123419,85.4,7.056267362487699,3.960027548113546,4.00158530952786,0.082626081527959,0.04637034599664573,86.0,5.9304,0.06895813953488372,8.0,80.6,90.0,0.0,0.0,73.0,101.0,2.5,15.625,2.8295481078636193,9.506979743734608,0.2976284986541997,84.51027666118361,3.3598933049816986,2.6338796334188386,127.76975036628211,0.4888888888888889,0.47368421052631576,0.6666666666666666,0.375,53.33333333333332,53.083669847048434,53.58141640936167,52.63157894736842,0.6695652173913045,0.3304347826086957,2.3177776043563396,1.6282391687641204,0.46316726243511597,0.5368327375648844,6.470107494158782,6.965656671255805,0.47999535161697315,0.5200046483830268,4.859752257534608,5.058237620580323,1.652847576395427,1.0092535374828744,1.8688567754980512,1.46894518127247,0.6632395247993461,1.287005699874726,-0.896244926941727,0.000855775447247284,0.07705405100325467,0.3679124628721846,4.142318519591885,0.8725584854417371,1.602670078583148,1.4091332978005064,2.138822283122125,0.9763294393474977
1,88.19293222669194,88.23255813953489,13.058179719464157,6.986381310057719,7.068439284173942,0.14799729255059535,0.07918144341920978,86.0,10.3782,0.12067674418604651,12.0,78.8,95.6,0.0,2.3255813953488373,68.0,123.0,3.5833333333333335,39.0625,4.99814135024478,17.544335741446428,0.28488632592895835,275.48333789818116,3.5101719843491836,3.14706544644285,246.33454321456526,0.20930232558139536,0.18421052631578946,0.14285714285714285,0.0,52.19780219780219,51.83605261591635,52.556003518750884,65.78947368421053,0.7039024390243903,0.2960975609756098,4.194944692795097,2.720742366412197,0.42136736287910376,0.5786326371208965,11.388522307645996,13.345608875463276,0.44259121511131705,0.5574087848886832,8.581841332935499,9.630880418768431,1.237718675106229,2.4132968817887814,1.7916747657377872,2.010616989889513,-1.0738052867480317,-1.1848859962020066,-0.4092767136095407,0.002098338170814408,0.41055776658123744,0.24352289876298538,4.611856614965962,0.6589022188084228,1.4776115336631455,1.5244261233639125,1.81438206818408,0.8833454251840624
1,89.61217386779957,86.75,8.648497651494564,6.042485242594866,6.105114679444558,0.09969449742356846,0.06965400856017137,86.0,8.8956,0.10343720930232558,10.25,79.0,93.4,0.0,4.545454545454546,72.0,107.0,3.142857142857143,0.0,4.316967989756782,11.491510661168425,0.3756658386389945,155.84964787920276,2.661940206282571,2.899675935347239,122.35885703955617,0.5454545454545454,0.5609756097560976,0.782608695652174,0.18181818181818182,45.73170731707318,45.674339887141834,45.81682894238723,60.97560975609756,0.5445859872611467,0.45541401273885357,3.1903873477324707,2.9175168828825586,0.4315985109086561,0.5684014890913441,7.549480942060009,8.663726379637126,0.4456075037470387,0.5543924962529615,5.795396186763193,6.464211457831689,1.4209010044074524,1.9590994082345197,1.9276049598480363,1.9916421643964128,-0.5051531510108287,-0.6962781139630358,-0.46731293762878273,0.0018352809228624391,0.2812568805007187,0.2717711380004064,4.51001258430054,0.7377097848419474,1.8854275275325574,1.453663930591266,2.0932444936670587,0.868545939328661
1,97.84024903041235,79.20833333333333,12.182928993688186,3.6785751172997707,3.5594592610770732,0.1538086774584516,0.04644176897169621,76.0,9.636899999999999,0.12680131578947368,14.0,69.4,85.6,0.0,0.0,63.0,117.0,3.4285714285714284,0.0,2.516917780864856,16.184813749768903,0.15551107475060036,127.97543298186682,6.430410191709767,2.8140967175438507,416.29996514975335,0.3333333333333333,0.3023255813953489,0.6153846153846154,0.16666666666666666,32.142857142857146,33.756227119405,30.277195313914746,69.76744186046511,0.3569182389937107,0.6430817610062893,1.5707932086521847,2.1084715255163022,0.17379071760177953,0.8262092823982207,6.747159771138288,14.71135721602333,0.17849934915969812,0.8215006508403018,4.898548574915569,10.50879829741143,1.801755696266833,0.9628484078414736,1.8748434159053975,2.2522128227363964,0.09580825122309378,-0.8422575938745593,-0.1080697607664007,0.0010240434156404095,0.09568862597162359,0.404002089359055,4.547995052579129,0.6168427515072737,1.3880845974884461,1.3195861226666277,1.3287875473726316,0.5817669271584537
1,84.40367405787762,92.97560975609755,18.434326411450527,10.10940156488009,10.238188942411291,0.19827056213784672,0.10873175869886771,93.0,25.2042,0.27101290322580646,35.0,72.0,113.0,2.4390243902439024,2.4390243902439024,65.0,125.0,5.125,0.0,7.23949282824815,24.88308559479609,0.2909403176976644,565.9293899662249,3.4371310511840685,3.4597323583567765,342.10570458857853,0.4634146341463415,0.47058823529411764,0.6875,0.14285714285714285,50.0,49.540630235553884,50.47073722009387,61.76470588235294,0.7641878669275931,0.23581213307240703,6.328608223873718,3.515533296524776,0.43650515269665036,0.5634948473033494,16.43989051058431,18.6788101526288,0.46207765481615265,0.5379223451838474,12.456349426121646,13.43980883563682,1.461239165529319,2.2334043369773937,2.0582414801880553,1.7362853554498763,0.18400038489578208,1.0301087820820243,-0.6441548757686674,0.0023596846608272357,0.37873597294004824,0.3048207661873854,4.625844687544914,0.6993919974199299,1.3648348271607922,1.3364829912488412,1.6987257262411568,0.784032000675817
1,96.64277311464386,80.08510638297872,11.824495185904558,7.581441872728776,7.664082740368069,0.1476491162958327,0.09466731350112978,77.0,10.3782,0.13478181818181817,13.5,70.2,86.80000000000001,0.0,4.25531914893617,65.0,109.0,2.764705882352941,0.0,5.419324877289039,15.369113892340986,0.3526114072191042,261.6639472220498,2.8359831234235258,3.1247139984360635,174.34619048261237,0.48936170212765956,0.4473684210526316,0.7058823529411765,0.3333333333333333,51.70454545454546,51.0875979979114,52.350420127394884,71.05263157894737,0.8271558245083207,0.1728441754916793,4.929503017546495,2.253392504154076,0.421854567629817,0.578145432370183,9.982290556966626,11.686040264864898,0.46668669626872084,0.5333133037312793,7.872297147710606,8.41550102043311,1.3162964643577988,1.6469622642085167,1.8760308267023593,1.6254484973354861,0.40571486749149877,0.43517886560876207,-0.6521481911349657,0.0033020102243969027,0.2702030033839656,0.3772210326040035,4.511619702557343,0.5168088667418224,1.3891088888623497,1.3927746356606256,1.7769079937630314,0.7090964491503368
1,90.02122592418407,86.54545454545455,16.324406817036827,8.84228740268195,8.942476437114607,0.18862234767584568,0.10216928721586288,80.0,10.3782,0.1297275,14.5,74.2,97.8,0.0,4.545454545454546,70.0,123.0,2.933333333333333,0.0,6.323285729284655,22.44566467449685,0.2817152363712036,445.8873484017543,3.549683761805288,3.356195259823721,318.7000456719522,0.38636363636363635,0.34210526315789475,0.5384615384615384,0.2857142857142857,47.39130434782609,47.018891945670774,47.8453616595481,68.42105263157895,0.7123735871505058,0.28762641284949436,5.339653992713831,3.3929197989202105,0.4266587809428164,0.5733412190571837,14.661311282434314,16.995699872600714,0.4476862340432384,0.5523137659567617,11.033266816368135,12.254911646385393,1.58335330419512,1.6073229954926171,2.080997772822056,1.6292690199417446,0.6136351843567738,1.3788438419117428,-0.7810441673186318,0.0028109309377233704,0.2376448275635907,0.4988140180580478,4.4422750844972185,0.6598402842191727,1.5549159181529906,1.4049857024436065,2.1025720481532986,0.7444679479959951
1,101.04750124783037,77.28,6.851307040504411,3.238795442501324,3.259601202601324,0.08865562940611298,0.04190987891435461,77.0,6.6716999999999995,0.08664545454545454,8.5,69.8,83.0,0.0,0.0,65.0,91.0,2.9411764705882355,0.0,2.3048861143232218,9.301657558378148,0.24779305192193138,67.35342594454167,4.03562566522267,2.5353298010522543,150.15203188681318,0.54,0.5348837209302325,0.6956521739130435,0.3333333333333333,56.250000000000014,55.82063255653975,56.68031820478889,55.81395348837209,0.7295719844357978,0.2704280155642024,1.976423537605237,1.2032940898494708,0.4217187476965262,0.5782812523034738,6.0404848715143045,7.07342744716733,0.43965940117543617,0.5603405988245639,4.494090980553976,5.073524047297243,1.7035763823483974,1.441939522619859,1.9340822726967093,1.914401954907896,-0.16529280260103363,0.1426174345515525,-0.5136485043097064,0.00014340069077454828,0.09797254162232101,0.48649112634140135,4.4043728207539825,0.7858886978913814,1.8321474502779176,1.3799408404177633,2.1473548419729798,0.7901398665684615
1,102.94430713073444,75.44,9.725120008702897,4.863441294442629,4.906524186411062,0.12891198314823565,0.06446767357426603,73.0,3.7064999999999997,0.05077397260273972,4.75,69.8,76.0,0.0,2.0,64.0,104.0,1.7241379310344827,0.0,3.4694365242670697,13.382948715680362,0.2592430560689547,145.86820294285582,3.8573839360002573,2.8709307425580755,206.49268556872283,0.46,0.45714285714285713,0.6875,0.16666666666666666,45.11278195488722,44.59294624354515,45.66853028420972,65.71428571428571,0.6937014667817082,0.30629853321829165,2.893959225697556,1.9229967932023877,0.4090252023382831,0.590974797661717,8.559075312200301,10.288126463385542,0.4270027132652075,0.5729972867347927,6.388770233774129,7.400792619486124,1.7710364271096593,0.9867583443673666,1.821811904491214,1.7561890323478426,-0.0558774454690667,0.11562727571337561,-0.5665034884356045,0.001142161501456937,0.05243809992867061,0.4973088002800048,3.750435500513583,0.571483882300587,1.12225245831202,1.3597587045605126,1.7856277389283248,0.9030169903639559
1,93.74115643917818,83.5,10.63275860515772,6.2840185302789235,6.311605472172958,0.1273384264090745,0.07525770694944818,83.0,8.1543,0.098244578313253,10.5,73.0,90.0,0.0,4.3478260869565215,67.0,115.0,2.3,23.4375,4.462979029547619,14.095453812553114,0.31662542326753496,197.63041459874407,3.158306081931528,3.002823891690888,178.07103001508577,0.43478260869565216,0.4358974358974359,0.7058823529411765,0.07692307692307693,60.122699386503065,60.835607945279634,59.422520019678956,46.15384615384615,0.5672481710748454,0.43275182892515485,3.384456448906597,2.9561184623821086,0.7423930450697783,0.2576069549302219,12.144957801491119,7.154146922017898,0.7262343595867297,0.2737656404132703,8.9150026767956,5.473593634234027,1.5646960213204528,0.9412538528739951,1.7561109161615174,1.720358468350014,0.18907572287843344,-0.09427200858981877,-0.5379838528175349,0.00019299617376257865,0.04673979541479082,0.4896755637150214,4.365209510075616,0.7938950400727638,1.4403836203641458,1.5513630548700577,1.4731020075473045,0.8405420367912846
1,98.53718599349855,78.70833333333333,8.29754727495673,4.375949744936837,4.421376046262146,0.10542145823131896,0.05559703222788994,76.0,5.9304,0.07803157894736841,8.0,72.4,83.0,0.0,0.0,68.0,105.0,1.7777777777777777,0.0,3.1263849844877294,11.369905259320342,0.27497018780564714,111.6732549653286,3.636757889938288,2.75491928476271,165.39837063873637,0.4583333333333333,0.425,0.6470588235294118,0.3333333333333333,47.88732394366197,47.91995390454903,47.88252964111802,62.5,0.6422222222222222,0.35777777777777786,2.506513254633251,1.8708286933869707,0.3288079497422528,0.6711920502577473,6.519705825889233,9.314943990695083,0.35085647211421467,0.6491435278857853,4.93908760561028,6.718191034414935,1.6668563922640858,0.9232669204066601,1.6787226812983418,1.4239539368944771,1.0,1.590278868751252,-0.7759426757016809,0.0025133646963126383,0.11275260843531633,0.44284052801715434,4.176094731857817,0.7511310948949954,1.4942723181760778,1.3676911931317732,2.0938831603450203,0.6981203125901446
1,90.41689678414514,86.27272727272727,7.078837233264574,3.2133442696587675,3.234640851724597,0.08205185412635439,0.037246350860112167,84.0,4.4478,0.05295,6.75,81.0,90.0,0.0,0.0,79.0,103.0,1.6296296296296295,0.0,2.287236480957492,9.72751688343988,0.23513055884295428,69.89770802182083,4.252956335921902,2.5514330452239906,165.48281824885166,0.5227272727272727,0.5135135135135135,0.7894736842105263,0.2727272727272727,56.86274509803919,56.731696715270886,56.973288574295864,48.64864864864865,0.6576576576576577,0.3423423423423422,1.8644544714716087,1.3451854182690983,0.5395740217267646,0.4604259782732355,7.145415854259616,6.600577019269095,0.5458211891116631,0.454178810888337,5.221741003080062,4.763252082182251,1.6077727887804845,0.2909026630789391,1.6932428229573715,1.547791491417902,1.170940068353774,0.17621499289664433,-1.0,0.0005870604563006753,0.017712294340630062,0.529608199002793,3.662644118047261,0.8197693277453206,1.5926952382846835,1.4979999552633396,1.7247279898630945,0.868545939328661
1,85.4067785146033,91.28571428571429,6.321800122941652,3.8635254973007083,3.9087144664822735,0.06925289649544845,0.04232344050251167,90.5,5.1891,0.05733812154696132,5.75,86.0,95.0,0.0,0.0,84.0,109.0,1.75,0.0,2.7638785049715735,8.587426997595053,0.32185176138855215,74.56446036351282,3.107020436009858,2.5795019891001223,106.72524469708243,0.42857142857142855,0.42424242424242425,0.6428571428571429,0.125,52.54237288135592,52.627546983829355,52.44927487370125,57.57575757575758,0.6143790849673201,0.3856209150326797,2.16794833886788,1.7175564037317668,0.5233288427642006,0.4766711572357991,6.212271011822549,5.9288777449609835,0.5318864168819383,0.4681135831180616,4.652542913522171,4.364721715911202,1.707710331870264,0.8220739975107305,1.7447250970520172,1.6847121828403933,-0.0014425195473570795,0.14584492833789842,-0.5730018397289601,0.0004344449680413984,0.028436880111471823,0.594529380575302,3.760666827231598,0.985353829277237,1.533704223771222,1.6195910355399146,1.8258112409594005,0.7703310603969659
1,86.84008981787953,89.25581395348837,7.644148161006543,4.621378891320518,4.591627486337156,0.08564313989663401,0.05177678278446646,89.0,7.412999999999999,0.08329213483146067,10.5,81.4,95.2,0.0,0.0,78.0,115.0,2.6875,23.4375,3.246770932271545,9.458402725292528,0.343268417149274,96.47600771176283,2.9131721709345,2.6913894335241917,110.2158224032529,0.46511627906976744,0.4871794871794871,0.7368421052631579,0.1,37.58389261744966,38.21042148971565,36.84707825587533,64.1025641025641,0.4080267558528428,0.5919732441471571,2.112679491580855,2.544721940821346,0.25756181604755957,0.7424381839524405,4.800191250706624,8.149818775314007,0.27395557085113126,0.7260444291488687,3.7084532272570705,6.037182945155723,1.2183717243884122,1.0574579858904292,1.365029691194183,1.376107308709901,0.1348966128711151,0.09801139159266636,-0.48952429537293624,8.9986057824702e-05,0.05186427260943745,0.2894726679641,4.184774568998514,0.9783886867725571,1.7319046909787976,1.683779379351159,1.5941328585621237,0.8833454251840624
1,92.8104521386617,84.28888888888889,8.84621701946971,5.477225575051661,5.539784992126066,0.1049511642172784,0.06498158472906004,82.0,8.8956,0.10848292682926829,11.0,76.8,92.0,0.0,0.0,72.0,104.0,3.2142857142857144,0.0,3.9172195342478062,11.920100457882231,0.32862303032501067,146.6924289522437,3.043000361268023,2.873377809700693,145.09147999874702,0.5111111111111111,0.4871794871794871,0.631578947368421,0.3333333333333333,51.19047619047619,51.320227213145955,51.07698282281306,56.41025641025641,0.6363636363636362,0.36363636363636365,3.125290684154854,2.362497692874473,0.4605945179686401,0.5394054820313599,8.089828181592479,8.754625915384183,0.4777305200037111,0.5222694799962887,6.1324041724332305,6.411897935368028,1.366364496122674,1.077319003853126,1.6748645008162812,1.5829869922256123,0.7274991213298527,0.48658422717003624,-0.5852834752399808,0.001061883371741357,0.10928914769271553,0.32068022232880944,4.524969207344632,0.978990560286461,1.731737957825327,1.5075671852883759,1.866411607889182,0.6102058995921861
1,91.25278299272486,85.66666666666667,10.78509071905201,7.353106950002959,7.437797020913713,0.12589600061150205,0.08583393326851703,81.0,7.412999999999999,0.09151851851851851,13.0,76.8,94.0,0.0,4.444444444444445,73.0,113.0,2.5,0.0,5.2593167105771865,14.391195261585553,0.36545378024408376,237.7804052266674,2.7363241374384133,3.083146172807287,157.51589984346347,0.6222222222222222,0.611111111111111,0.7727272727272727,0.2222222222222222,50.82872928176795,50.76129570237662,50.90925880731668,61.111111111111114,0.7297183690626311,0.2702816309373686,4.49288843747849,2.7343635797103705,0.41586943880130867,0.5841305611986913,9.280585346125077,10.998965255439757,0.4528501580581409,0.547149841941859,7.290929669059339,8.014174345383854,1.4731305420419265,1.2592309159532973,2.043468414436596,1.5246660279721496,1.0120223178430936,1.2317946912090316,-0.9119994036770361,0.0034284406341480705,0.20982291393584754,0.3103896460880331,4.374860596185444,0.6690795845052863,1.2195091509939078,1.3731504607970448,1.722740380038285,0.7322470795106233
1,89.97214052472827,86.93181818181819,12.191109469843514,7.469317082198252,7.557677811946707,0.14023759913022604,0.08592155597822826,82.0,9.636899999999999,0.1175231707317073,16.0,76.0,98.4,0.0,2.272727272727273,73.0,115.0,3.142857142857143,0.0,5.3440852308506255,16.501149327399546,0.3238613944288699,277.0367878605563,3.087740673023105,3.149507553047944,203.8050797193577,0.2727272727272727,0.2682926829268293,0.5454545454545454,0.0,50.24390243902439,50.07390396820076,50.43749383733589,63.41463414634146,0.7765735723218008,0.2234264276781992,4.709413066250552,2.526054706642827,0.2423945639832821,0.7576054360167178,8.124106957579938,14.362688302227395,0.29310431059531344,0.7068956894046865,6.6400182713141005,10.311832224388933,1.4859359177425697,2.9763022510409707,2.192637907037268,1.9319019945687494,-0.04978452811032241,1.4143242937561125,-0.5876039765038397,0.0035604897623346915,0.6470870815571789,0.31808256977211835,4.28047018725259,0.7864002171891208,1.375362268486189,1.4558925438151737,1.8355303992696368,0.868545939328661
1,85.8305898662809,91.48780487804878,16.2344109089605,9.674709297958259,9.794687204597063,0.1774489062296402,0.10574862202513693,86.0,16.3086,0.1896348837209302,29.0,76.0,109.0,0.0,2.4390243902439024,73.0,124.0,3.1538461538461537,0.0,6.925889741971692,22.035519112653155,0.3143057218921942,479.4559716980518,3.181615638365619,3.387718842163977,280.434208833287,0.1951219512195122,0.18421052631578946,0.14285714285714285,0.0,51.82481751824818,51.95577396338411,51.73474551318888,60.526315789473685,0.7350427350427352,0.26495726495726496,5.939869635105747,3.5662233129669145,0.38709932935523056,0.6129006706447695,13.709906581065331,17.251161239248912,0.41840069200826574,0.5815993079917342,10.565121621249558,12.456333987584644,1.5356066482835438,2.467652852431595,1.990328861986645,2.0322648389146387,-0.7844884567103101,0.08274762953644199,-0.48300572267015984,0.0011800516253353609,0.3482378694068485,0.2874438664642547,4.521828528850026,0.8142505970296281,1.4713869729165256,1.4769986322221904,1.8946942578002006,0.9147040007884533
1,83.64041267096718,93.3170731707317,10.817668474283735,5.757603668193912,5.816863195563175,0.11592378657753089,0.06169935974802677,93.0,10.3782,0.11159354838709677,13.0,84.0,101.0,0.0,0.0,75.0,117.0,3.4166666666666665,31.25,4.113143410817172,14.437131613681757,0.2849003195980589,186.55403223520528,3.5099995725200066,2.9777747504122063,202.69730316975216,0.6585365853658537,0.6363636363636364,0.9047619047619048,0.375,44.87179487179487,45.456314058874035,44.26064267206925,51.515151515151516,0.40573152337858226,0.5942684766214177,2.626296993379823,3.178453099003366,0.5736267960830629,0.4263732039169372,10.934416964748252,9.427051228872942,0.5609656156873449,0.43903438431265485,7.951695110365156,7.0346236208612805,1.5082757583694133,0.48367499167097083,1.7374117752412488,1.548449489111316,1.0124300877059822,0.476991767196453,-0.8906802902443175,0.0006453773604427185,0.03240200265102233,0.32073648916535946,4.540240419146696,0.8804773278972965,1.400205233806604,1.490328114440424,1.5680041183612514,0.653360000563181
1,82.23824826660139,94.825,8.813996735961414,6.044705248269889,6.107781369070252,0.09295013694660073,0.06374590296092685,94.0,8.8956,0.0946340425531915,12.5,87.0,104.0,0.0,0.0,81.0,113.0,3.076923076923077,0.0,4.318853624074429,11.684303229988101,0.3696286838046078,158.5335471499672,2.7054177443886296,2.9070912869288263,126.44368515690876,0.375,0.3783783783783784,0.6428571428571429,0.3333333333333333,45.086705202312125,45.0967893046202,45.09719487564352,62.16216216216216,0.5684210526315788,0.4315789473684211,3.2646431254950525,2.8446625921465443,0.4242558980112544,0.5757441019887455,7.6105626168340805,8.865792611242266,0.4416645760129115,0.5583354239870888,5.8557048286946,6.583858438967072,1.523235212343909,2.7575477867504237,1.9609780254462748,2.4828134071327854,-1.4741516629009332,-1.424145903660957,-0.31076107395351543,0.004426676315597438,0.5846863487771807,0.33937554879454135,4.465311532225103,1.1216564766213233,1.6158973751638555,1.662800369104215,2.1187117269394253,1.1974338213496565
1,85.98292813009122,90.85714285714286,8.849890253064679,5.371560158518693,5.408552396380222,0.09740445247083765,0.059120945140929006,88.5,9.636899999999999,0.1088915254237288,15.5,83.2,100.0,0.0,0.0,77.0,107.0,2.625,0.0,3.8244240758832064,11.749597813563144,0.3254940412912248,141.16886314423186,3.07225286224298,2.8567090272453246,144.39094205169292,0.38095238095238093,0.3783783783783784,0.5,0.1,56.571428571428584,56.28980632520045,56.85324916054947,54.054054054054056,0.6348267117497887,0.3651732882502114,3.0639027399707057,2.32379000772445,0.4709336854727514,0.5290663145272486,8.063115468163943,8.54629848107022,0.48679052546324664,0.5132094745367534,6.099234831228612,6.262556096656667,1.565242520377956,1.3038243787085726,1.7823528710685443,2.062033050958796,-0.3154957851279381,-0.9746219991462359,-0.2854924447974562,0.0008272963974257725,0.12963496730973967,0.21604670158270078,4.338396886909941,1.125449717268919,2.0313352225800405,1.634406905981845,2.204842060730781,1.0271080805292878
1,87.80623365228058,88.72093023255815,17.126039184869434,8.996030870810273,9.093558108400027,0.19303268281766334,0.1013969403525142,83.0,17.7912,0.21435180722891567,27.5,72.4,104.4,0.0,4.651162790697675,68.0,121.0,3.0714285714285716,0.0,6.430116603563571,23.259313072386792,0.27645341818788866,469.85689626957486,3.617245923580372,3.37893571550634,336.5386215854831,0.23255813953488372,0.21052631578947367,0.5,0.0,54.26008968609865,53.47483112714103,54.99380564463095,71.05263157894737,0.8228890850250072,0.1771109149749927,5.8403558194309495,2.709513501467403,0.4310532333848807,0.5689467666151191,15.270819292089977,17.544164920213092,0.45893916581900857,0.5410608341809914,11.560875355033208,12.552672746516372,1.3989959260404847,1.9577708710005641,1.9759878212474726,1.6353041873520278,0.4216789809426391,1.0783782990765847,-0.6740160909235158,0.002654686214762199,0.3244364264701022,0.25168144970664574,4.757546440698298,0.5939953450199719,1.212514413719156,1.2811004022948305,2.2479487098524906,0.630961017988616
1,82.50536791357771,94.35,12.587234070218187,5.382783571197989,5.308689690951791,0.133410006043648,0.057051230219374555,91.0,11.8608,0.13033846153846154,20.5,83.0,105.2,0.0,0.0,78.0,126.0,3.6363636363636362,39.0625,3.7538104796871283,16.63948525753208,0.2255965507098795,196.22850827906245,4.4326918867036,2.9997322123374253,295.0308451999464,0.375,0.3529411764705882,0.6666666666666666,0.0,34.810126582278485,35.47091443402475,33.98712787029342,73.52941176470588,0.41858407079646026,0.5814159292035398,2.4947312902447663,2.9401933341372746,0.25907203014496016,0.74092796985504,8.469351380108801,14.32279849875284,0.2672014774013109,0.7327985225986892,6.243140115770155,10.33893838065548,1.5417768679099344,0.6345976228250019,1.682967141874422,1.8590756793224354,0.12782610022252427,-0.8685812126322274,-0.2224878708747112,0.0004792648625200698,0.0405712407873794,0.39648245564839524,4.553055907333277,0.7973212693693266,1.441824168125162,1.5320811152187896,1.4819228318289719,0.9313374166052885
1,90.11473006674503,86.68181818181819,8.186127594255368,4.8512765042749555,4.908464449887964,0.0944388081141154,0.05596648300684269,87.0,9.636899999999999,0.11076896551724137,13.25,77.2,94.4,0.0,0.0,73.0,101.0,2.4444444444444446,15.625,3.470808497728876,11.185538836809226,0.3102942601483966,121.96562196644335,3.2227473351319973,2.7932075447821494,144.1926619133696,0.5681818181818182,0.5526315789473684,0.8095238095238095,0.5,50.641025641025635,50.64170045572695,50.632874944538365,57.89473684210527,0.5602766798418973,0.43972332015810284,2.598076211353316,2.3016557187422815,0.4662292050043846,0.5337707949956156,7.637595388851413,8.17211207375199,0.47448974706234803,0.525510252937652,5.704509765256098,6.003375500232435,1.4503410636264604,1.8662482010820831,1.8159614844206469,1.796116381007538,-0.12343764595419948,0.3009855450514767,-0.5106336892389781,0.0007765398201344839,0.2129367514804179,0.3649089340922371,4.3885358123017575,0.8502648305314539,1.5813192195077994,1.458890921183523,2.649862755118397,1.1167019219939927
1,91.17940533154122,85.57777777777778,11.420652920534497,6.517459069857879,6.592447148672018,0.13345348777565627,0.0761583116446649,82.0,8.8956,0.10848292682926829,12.0,76.0,93.2,0.0,2.2222222222222223,70.0,115.0,3.2142857142857144,0.0,4.661564083439903,15.648853884773056,0.2978853351027698,229.1733256884681,3.3569964082152683,3.067134177094569,210.13258513547478,0.4,0.375,0.6,0.25,49.19786096256685,49.07053177667264,49.33373015945746,65.0,0.6163723916532906,0.3836276083467095,3.659965687982512,2.8874226054260883,0.5225484027967379,0.47745159720326197,11.312166736707418,10.813025091430564,0.5301961468430061,0.46980385315699386,8.407153653772454,7.9138713955381075,1.625925956061635,2.5378293898826643,2.093016265845645,2.2986418560169315,-0.9870472205044294,-0.6599215278595176,-0.4189758023171158,0.0016764763410895454,0.4130278528041819,0.4122402726092993,4.6583025406779655,0.8100393560993628,1.6043333210666135,1.3659773471160566,1.9363615933049843,0.7322470795106233
1,81.70496566851621,95.825,11.905369398419374,9.14834999834985,9.230589291993383,0.12424074509177536,0.09546934514322829,91.5,6.6716999999999995,0.07291475409836065,16.0,87.0,104.2,0.0,2.5,83.0,127.0,2.2222222222222223,0.0,6.527012282716454,15.28311320568423,0.42707347612192453,313.3835043817962,2.3415174575592506,3.203046242667102,143.1427055078558,0.35,0.3714285714285714,0.46153846153846156,0.0,43.442622950819676,43.181348566380706,43.73702936604779,60.0,0.6096813725490198,0.39031862745098045,5.117050959909994,4.0942835630592125,0.4770082912076695,0.5229917087923306,10.555402389428572,11.052467129786242,0.4976141815386918,0.5023858184613081,8.294598547520856,8.334272240266158,1.1851245569588695,2.0186452253981977,1.6288375307941863,1.7589063919685877,-0.23847362093553848,-0.25752237769697617,-0.4355662602135826,0.002009315922412902,0.3176061061268809,0.44854751801129655,4.325070520364181,0.9935079883943421,1.469137920655598,1.6080378699985183,2.203114728488547,0.9313374166052885
1,92.12268722220259,84.8,10.190458995818322,6.397797916613042,6.470742414868418,0.12017050702615946,0.0754457301487387,82.0,4.4478,0.05424146341463414,8.0,79.0,88.4,0.0,2.2222222222222223,74.0,122.0,1.875,0.0,4.575505840864874,13.711723583720742,0.33369297542558024,197.09746403985147,2.9967667096516952,3.0016511464148308,164.36334707056145,0.4222222222222222,0.42105263157894735,0.5,0.2,51.36612021857923,51.541007522457974,51.22173374283947,47.368421052631575,0.6196557468073294,0.3803442531926707,3.6023248307234192,2.822253758801601,0.6008764296489106,0.3991235703510892,10.628809760045629,8.662549666300471,0.6027585438936315,0.39724145610636824,7.9356266640161355,6.442238857733861,1.2669217655523815,1.500200689933152,1.2986490812584404,1.836597823654496,-0.36829046666969667,-0.7156029370451931,-0.14141548127135822,0.003768602649671465,0.23176612361968923,0.5786514026202001,4.066542752164838,0.9249327649786432,1.4785322990642045,1.8022721198882752,1.5471534748470808,1.098370619265935
1,92.49992603515958,84.62222222222222,19.500919429243808,10.0,10.10892055767764,0.23044678947373198,0.11817226890756302,79.0,17.7912,0.22520506329113923,26.0,68.0,98.80000000000003,0.0,4.444444444444445,64.0,127.0,3.2142857142857144,0.0,7.148086276809954,26.907149878568294,0.26565750401172916,604.2370568534888,3.7642452590228683,3.488177466273896,405.1404454568738,0.37777777777777777,0.3333333333333333,0.5384615384615384,0.1111111111111111,53.25203252032521,53.32922547746476,53.17095471066234,64.1025641025641,0.7770454545454545,0.22295454545454535,6.3052211661041975,3.3774216118491993,0.41362649821360525,0.5863735017863947,17.30501079225565,20.604157737399827,0.43761327234865993,0.5623867276513401,13.023425288179237,14.763778188726612,1.5295434714161338,2.2666020195831917,2.049064527328056,1.9922873281576625,-0.31839556604220576,0.2873253328928458,-0.5250494787703552,0.0019017829780591158,0.3492855079267577,0.31356100393059805,4.685971707296554,0.6188802038674411,1.2103705761595924,1.276268983970886,1.696868549142325,0.6102058995921861
1,94.63984922157529,82.3913043478261,5.527620588642158,2.996294007232564,3.027149874657078,0.06708985411016867,0.0363666291115298,81.5,5.9304,0.07276564417177914,7.75,77.0,87.0,0.0,0.0,73.0,96.0,2.1904761904761907,0.0,2.1405182040380275,7.574812062208393,0.28258367157613307,50.937855891670274,3.5387748854079923,2.4140107703771037,107.22221874971434,0.4782608695652174,0.4444444444444444,0.625,0.0,47.11538461538461,47.13841509551664,47.10356573361461,66.66666666666666,0.6163366336633667,0.3836633663366337,1.6821252790875758,1.3271637564233119,0.3363163979062507,0.6636836020937494,4.392845039616983,6.1709553746312436,0.357061511461746,0.642938488538254,3.326156415191037,4.4632977646608945,1.571284504979307,1.2647343110851494,1.7934320559712242,1.8421093145546799,-0.05032565738484074,-0.14855369182196831,-0.4615118699976675,0.000227352078627981,0.08641665619531663,0.42006849325010664,4.091511891254247,0.9287340647734615,1.960834209240487,1.557662043171421,2.1132523033351682,0.7204646029639583
1,94.69699043508872,82.42553191489361,13.037979105959542,7.372097807744857,7.453430296742956,0.1581788895147389,0.08943949327930002,77.0,8.8956,0.11552727272727273,15.0,72.0,89.80000000000001,0.0,2.127659574468085,69.0,114.0,1.9583333333333333,0.0,5.270371105928206,17.84303542123588,0.29537413234385423,295.43354576124335,3.3855368175432123,3.177429916820746,241.63301342128693,0.425531914893617,0.40476190476190477,0.7058823529411765,0.2857142857142857,49.50980392156863,49.3333423033422,49.70092024407269,66.66666666666666,0.6604000000000002,0.3396,4.283041494597554,3.071373199943851,0.33323589163638845,0.6667641083636117,10.30017547359313,14.56984208070454,0.35948996503821956,0.6405100349617804,7.887904006491646,10.528856338415919,1.7242081868732642,1.6464134040931953,2.09277881491695,2.1000313276684537,-0.2523258063816698,-0.1994884273825619,-0.4955949625206688,0.0007639398713583351,0.16667677363633282,0.3216103572841096,4.562478415867196,0.6753581410253336,1.356687405512674,1.3493898136180529,1.828351307919933,0.5909137076252805
1,88.42590033607259,88.5813953488372,6.870338447820231,4.008918628686366,4.0568692551412235,0.07755960967610133,0.045256891843925895,89.0,7.412999999999999,0.08329213483146067,10.0,81.4,94.0,0.0,0.0,76.0,104.0,2.5294117647058822,23.4375,2.868639760697577,9.068153999410612,0.3163421971973596,81.72308887641049,3.1611337622976676,2.6193148832015467,114.66259107700603,0.5348837209302325,0.5135135135135135,0.6842105263157895,0.3,51.21951219512195,51.356766111188456,51.09621742984134,56.75675675675676,0.6474074074074077,0.3525925925925925,2.308520801873556,1.7036546083024702,0.5017511713288625,0.49824882867113773,6.423372150064187,6.400914557999229,0.5150051852038661,0.48499481479613393,4.826436473781829,4.683702926275145,1.3355461732666751,1.1774276470744534,1.5825184141736193,1.49429024860278,0.36545590150786467,0.36705181824496425,-0.5749329827527485,0.0002774266674173869,0.08353457962809624,0.31826636672297637,4.388376603932548,1.000790307953853,1.7520399653905872,1.709768768990172,1.6555284356779236,0.7571532215863394
1,87.87249826795477,89.06976744186046,9.361510228277957,4.9737405680328,5.032588341232697,0.10510311744541832,0.05584095154710454,88.0,10.3782,0.1179340909090909,14.0,80.4,99.2,0.0,0.0,73.0,109.0,3.0714285714285716,23.4375,3.5585773430059984,12.596998794534377,0.2824940607718407,140.82941324109794,3.5398974310035514,2.8556634797837854,178.36833468450828,0.5348837209302325,0.55,0.8181818181818182,0.2222222222222222,51.61290322580645,51.896177294931455,51.36923531892915,55.00000000000001,0.6410009624639075,0.3589990375360924,2.849903721095187,2.1327870235456885,0.4655636743315081,0.5344363256684918,8.595212759074817,9.209055122852618,0.47853625977127423,0.5214637402287258,6.403109931637701,6.684140810289043,1.34455995564559,0.9069949144208778,1.539301333645647,1.6842719233908294,0.2807470409635755,-0.43743394626455423,-0.34016383395297517,0.0007150645211522642,0.07399337661841947,0.25574232282509124,4.460921149950308,0.9551067159772962,1.6546338253934423,1.611128684865462,1.6614873644240076,0.8833454251840624
1,97.24112664128475,80.27659574468085,8.909453034642656,4.683458402579834,4.734751777668525,0.11098444013469516,0.058341517339319436,76.0,4.4478,0.05852368421052632,10.0,74.0,85.60000000000001,0.0,0.0,71.0,103.0,1.7407407407407407,0.0,3.347975089224475,12.272873744632541,0.2727947144969767,129.08576627275121,3.665760173704109,2.817848467100409,179.95764715989114,0.425531914893617,0.4166666666666667,0.6666666666666666,0.375,51.094890510948886,51.17815154716981,51.008700402421134,61.111111111111114,0.6105054509415262,0.38949454905847364,2.6161889160464775,2.0896570691543306,0.4229970681958055,0.5770029318041944,7.982059212456488,9.322561916154234,0.43598673838253815,0.564013261617462,5.939600732187557,6.755620894751124,1.4406046353131035,0.8815955781895422,0.5636220976193087,0.9998068462183324,0.8503208228409551,-0.841658496299794,-0.0052326039398028846,0.008825241383408667,0.2564935599270622,0.394244731622412,3.871072546475763,0.7112389146774646,0.9087779570146008,1.437320019074318,1.7367412211441395,0.5909137076252805
1,89.8836214119109,86.88636363636364,15.438122414291415,10.086832309824112,10.204009808321816,0.1776817646426425,0.11609223689046846,80.0,11.119499999999999,0.13899374999999997,19.25,74.0,96.0,0.0,4.545454545454546,71.0,124.0,2.3157894736842106,0.0,7.215324530758397,20.831125021388065,0.34637229258382174,472.1918290760592,2.887066954866204,3.3810885776306274,240.56341072774407,0.5227272727272727,0.5128205128205129,0.75,0.5,51.91489361702127,51.52588463096858,52.28985664475893,64.1025641025641,0.7881142857142858,0.21188571428571434,6.406841581280049,3.3220045583524245,0.3641259822667919,0.635874017733208,12.57009500230377,16.611095126142576,0.40956190032440615,0.590438099675594,9.97634470671902,11.978401303501897,1.0976051207595616,1.0541302994076036,1.846386418735785,1.3719859539601114,0.9959261614602841,0.49373931340177446,-0.9500396820414665,0.00393412893647423,0.19625909154294147,0.3559731655736491,4.396820539042674,0.7789623933776011,1.2378837479463531,1.586176972397377,1.9666071493061017,0.7444679479959951
1,92.82663954990878,83.84782608695652,10.325733530692139,5.44875113112068,5.495452665613634,0.12314849427322748,0.06498380918629798,82.0,8.8956,0.10848292682926829,12.75,76.0,91.0,0.0,2.1739130434782608,70.0,116.0,2.5555555555555554,0.0,3.885871845545089,14.05224738487252,0.27653027584244605,171.54739720519368,3.6162405615570026,2.9413542430913937,203.2652278968373,0.391304347826087,0.39473684210526316,0.6666666666666666,0.125,43.75000000000001,43.89333609862906,43.70204263689645,63.1578947368421,0.45134730538922174,0.5486526946107784,2.617684611879882,2.8860951915252993,0.4680469802815587,0.5319530197184413,9.613698781679759,10.249022016796804,0.46685471863720096,0.5331452813627987,7.04540548840674,7.529010484629805,1.450941464388937,1.4325968108004306,1.8008478643805614,1.5974220701622381,0.2953067375119076,0.4799545616075793,-0.641997938767338,0.0009737368693513585,0.14165227614041115,0.41041369203266065,4.2675959232131575,0.7209777764246088,1.317220123440423,1.483700980895373,1.7270472019386824,0.6003871691366318
