Stress,ECG_Rate_Mean,HRV_MeanNN,HRV_SDNN,HRV_RMSSD,HRV_SDSD,HRV_CVNN,HRV_CVSD,HRV_MedianNN,HRV_MadNN,HRV_MCVNN,HRV_IQRNN,HRV_Prc20NN,HRV_Prc80NN,HRV_pNN50,HRV_pNN20,HRV_MinNN,HRV_MaxNN,HRV_HTI,HRV_TINN,HRV_SD1,HRV_SD2,HRV_SD1SD2,HRV_S,HRV_CSI,HRV_CVI,HRV_CSI_Modified,HRV_PIP,HRV_IALS,HRV_PSS,HRV_PAS,HRV_GI,HRV_SI,HRV_AI,HRV_PI,HRV_C1d,HRV_C1a,HRV_SD1d,HRV_SD1a,HRV_C2d,HRV_C2a,HRV_SD2d,HRV_SD2a,HRV_Cd,HRV_Ca,HRV_SDNNd,HRV_SDNNa,HRV_DFA_alpha1,HRV_MFDFA_alpha1_Width,HRV_MFDFA_alpha1_Peak,HRV_MFDFA_alpha1_Mean,HRV_MFDFA_alpha1_Max,HRV_MFDFA_alpha1_Delta,HRV_MFDFA_alpha1_Asymmetry,HRV_MFDFA_alpha1_Fluctuation,HRV_MFDFA_alpha1_Increment,HRV_ApEn,HRV_ShanEn,HRV_FuzzyEn,HRV_CD,HRV_HFD,HRV_KFD,HRV_LZC
0,110.28461912821477,70.33962264150944,5.948313905334905,2.2274511131646553,2.1724311297656045,0.08456562150824837,0.03166708932342455,70.0,4.4478,0.06354,8.0,65.0,73.6,0.0,0.0,63.0,95.0,1.8275862068965518,0.0,1.5361407835180112,7.554427946495577,0.2033430981667661,36.457129886501846,4.917796615746841,2.2687525854843087,148.60456075671723,0.5094339622641509,0.5263157894736842,0.75,0.08333333333333333,70.27027027027026,68.84488351258486,71.83812620823467,42.10526315789473,0.8527131782945736,0.14728682170542637,1.46862614204502,0.6103679378930738,0.7210890438947631,0.2789109561052368,6.41499071026134,3.98964607278065,0.7266752582336933,0.2733247417663067,4.6534378988999805,2.8539292918415047,1.2345348838929777,0.7087287523558439,0.6197208992964511,0.95344452825277,1.0,1.4447943949520732,-0.0291236205007802,0.002710633007038023,0.12749764472056285,0.534108189365158,3.7307794841487785,0.6009059626876767,1.1794411338972368,1.4799250934874328,1.2961799034820776,0.5403698542040754
0,108.31109044163162,71.64814814814815,5.895816897029486,2.363240499902064,2.3338861740538603,0.08228847568870308,0.03298397182597866,71.0,4.4478,0.06264507042253521,5.75,66.0,75.0,0.0,0.0,64.0,91.0,2.25,0.0,1.6503067401910116,7.74151532366443,0.21317618982763215,40.13659478536798,4.690955405519584,2.3105106338517585,145.2604126178254,0.5370370370370371,0.5,0.75,0.25,34.523809523809526,35.01133481342059,33.97849709788469,65.0,0.33445945945945943,0.6655405405405405,0.9756654533819863,1.3763105642371452,0.35674753627194844,0.6432524637280516,4.623879088505942,6.208929189595308,0.35573705345253986,0.6442629465474601,3.341570057775657,4.496945210397799,1.6322370518944176,0.561287565298485,1.079364092209481,1.3600078748587234,1.0,-0.7901874848695094,0.0,0.0010963386918761463,0.051983950534758586,0.39734347618797283,3.928899373753696,0.6183093589544065,1.3696357026695292,1.4196891866185193,1.4003016036893106,0.8525759262464397
0,102.05146147456405,76.75510204081633,11.993975244966563,6.32620212555158,6.377841461037399,0.1562629053452171,0.08242060732571854,75.0,14.825999999999999,0.19768,19.0,65.0,89.0,0.0,2.0408163265306123,62.0,105.0,2.8823529411764706,0.0,4.509814946432263,16.38547591380811,0.2752324662496878,232.14944740305916,3.6332922987828455,3.072737764192337,238.13289379812326,0.3877551020408163,0.3333333333333333,0.5,0.1,56.21301775147928,56.614207130331536,55.825881130474265,66.66666666666666,0.810515356585112,0.18948464341488813,4.069868522106585,1.9678263199611685,0.30392616649565224,0.6960738335043478,9.033230787427295,13.670572865211664,0.33975872649246786,0.660241273507532,7.005822158967439,9.766189197650059,1.628782205382917,1.0950677233648283,2.02735002965227,1.7331777086702915,0.828748049444803,0.7471358101799463,-0.7686339070227288,0.001904263155125403,0.13822989852320228,0.2351328139094866,4.548084078676629,0.586148909167708,1.2664294622455594,1.406385961895044,1.5769446574313843,0.687515491116148
0,117.9162726726715,65.94827586206897,5.3259458061064215,1.5949481650269413,1.6066902732279216,0.08075943967429344,0.02418483492066996,64.0,2.9652,0.04633125,4.75,62.0,69.0,0.0,0.0,60.0,80.0,1.8125,0.0,1.13610158746593,7.27399667094523,0.15618670709651253,25.9621190662962,6.402593527899077,2.121310247290436,186.28977602941345,0.5862068965517241,0.5675675675675675,0.8571428571428571,0.15384615384615385,45.90163934426229,46.28930176334574,45.503348914972655,59.45945945945946,0.5655172413793106,0.43448275862068975,0.8556534679079242,0.7499999999999999,0.38461301543891235,0.6153869845610878,4.511127338399419,5.706203440613353,0.38893371403187843,0.6110662859681213,3.246722402700721,4.069598119327489,1.788657380772285,0.5687484400813965,1.310808074155493,1.5951822941961913,1.181798266929209,-0.313750425186349,0.0,0.00037291224937255845,0.02630893104649442,0.21189250801604187,3.45560236891801,0.5854660732462812,1.208532325795175,1.3668675946509878,1.4324112837077063,0.4039986893191429
0,118.44724140051133,65.77966101694915,3.311775212106505,1.137147065368355,1.140599814608125,0.050346492531379496,0.017287213825491615,65.0,2.9652,0.04561846153846154,5.0,63.0,69.0,0.0,0.0,61.0,74.0,1.2553191489361701,0.0,0.8065258635295242,4.520789511804584,0.1784037636398558,11.45466673547848,5.605262913728114,1.765952568214561,101.36085516515706,0.6440677966101694,0.625,0.84,0.5555555555555556,43.13725490196078,43.58360337569872,42.669024953242676,57.49999999999999,0.4533333333333333,0.5466666666666666,0.5461186812727501,0.5997075310574459,0.40451361200472485,0.595486387995275,2.875284723296697,3.4885922046033095,0.40603613294117924,0.5939638670588209,2.0694815599635636,2.5029906804486903,1.8407239601453904,0.6929530503936423,1.1551656370908558,1.501642162287677,1.0147894546782155,-0.8074144716536296,0.0,0.0004535284458375485,0.046305501589015495,0.4523852656891596,3.3398996036545894,0.775378225426526,1.5492892441619586,1.292114582786956,1.5074595915362974,0.4985290719798171
0,116.32315930129094,67.0701754385965,2.7442124105808507,1.4267845968170128,1.4378916744777637,0.04091553947243225,0.021273011252568592,66.0,1.4826,0.022463636363636363,3.0,65.0,69.0,0.0,0.0,64.0,76.0,1.1176470588235294,0.0,1.0167429536349064,3.719638999380757,0.27334452451008634,11.881241855310511,3.6583867988294028,1.7818319464589545,54.43151284698229,0.6842105263157895,0.787878787878788,0.9230769230769231,0.6666666666666666,53.84615384615385,53.75141018804024,53.93653789843451,48.484848484848484,0.5789473684210527,0.4210526315789474,0.7745966692414833,0.6605782590758162,0.5228098244037841,0.4771901755962159,2.6895068983393986,2.5694876784096614,0.5267217800537671,0.4732782199462329,1.9790714181422573,1.8759838173426109,1.6058535501212257,0.9952233019825139,0.6554029536652042,1.153014604656461,1.0895454110529847,-0.9351202858038716,0.0,0.0008829320716008117,0.08988717535172105,0.44812992911139915,2.795094133696978,0.8295482527023667,1.3735941790575261,1.40627899850052,1.869170717867348,0.613988422543657
0,105.95813952390974,73.6923076923077,11.902444075159211,5.399709505621394,5.453403326651831,0.16151542064412291,0.07327371980488322,69.5,11.119499999999999,0.15999280575539565,18.25,63.2,84.0,0.0,1.9230769230769231,60.0,101.0,2.888888888888889,0.0,3.856138472820786,16.55585910148535,0.23291684528015966,200.5645693171337,4.293377745165528,3.009224325240891,284.32222807365343,0.4423076923076923,0.38095238095238093,0.5625,0.1111111111111111,50.322580645161274,50.177927749086614,50.449765447652,71.42857142857143,0.7585743106926697,0.2414256893073302,3.3585711247493326,1.8947295321496416,0.45743757280920966,0.5425624271907903,11.197411496477804,12.194853273688127,0.472933845727004,0.5270661542729962,8.266257442804854,8.726524118077656,1.7072107753487145,1.0744146370403005,2.138382475187292,1.8742183087548687,0.8601001802580353,0.6045353991577436,-0.7458679892523792,0.002477922109660336,0.15452782774315957,0.30828093019386626,4.616506487821858,0.4940505078920664,1.1000768118650288,1.2252880056648818,1.8000908076516968,0.6577430444008953
0,108.90287304432873,71.62264150943396,3.443089037334507,1.3728129459672882,1.3813015481123214,0.04807263408291066,0.019167304040112295,72.0,4.4478,0.061775,6.0,68.0,75.0,0.0,0.0,65.0,78.0,1.606060606060606,0.0,0.9767276915336985,4.7524701840915045,0.2055200040608803,14.582862278145619,4.8657064044421405,1.8708128842594702,92.49649844661741,0.6037735849056604,0.6216216216216216,0.8695652173913043,0.36363636363636365,44.230769230769226,43.98771924416523,44.471980884641326,56.75675675675676,0.4999999999999999,0.4999999999999999,0.693103280083672,0.693103280083672,0.4533241767414863,0.5466758232585138,3.199807423649038,3.5138590327785257,0.4552287022140978,0.5447712977859023,2.3150766407726375,2.5325478731015116,1.499282040618497,0.6698818480533184,0.8294001925651786,1.1643411165918378,0.9562229755071623,-0.9829785498088637,0.0,0.0013133216461655543,0.07659331172927734,0.3991196486423241,3.503574880753185,0.7401811140147465,1.6708165253952576,1.4109669070108872,2.030537597277885,0.8645917667265206
0,103.08225032385714,75.76470588235294,6.589653208763318,3.243454948045371,3.2761351047369516,0.08697523645106864,0.04280957617761747,73.0,4.4478,0.06092876712328767,7.5,71.0,82.0,0.0,0.0,69.0,91.0,1.7586206896551724,0.0,2.3165773486427987,9.089621801252013,0.2548595969442547,66.15192580085954,3.923729033514596,2.527512601758363,142.66085186095904,0.47058823529411764,0.45652173913043476,0.7142857142857143,0.2222222222222222,50.81967213114753,50.872172818624016,50.76761671708559,56.52173913043478,0.6273764258555132,0.3726235741444866,1.83503322552359,1.4142135623730951,0.46216478446018705,0.537835215539813,6.179370551129237,6.666078613520294,0.47224277735512954,0.5277572226448703,4.558067975959703,4.818537334172718,1.7570385476306474,1.6995355207803158,2.2033826840895117,2.0057370758595603,0.42344153955375674,0.8443932220560466,-0.6162938966637223,0.0014304611600932347,0.22221304513297627,0.529593940870817,3.892289805419132,0.8266623703870868,1.5910452393528105,1.4247757545254525,1.85956141310069,0.778568184192166
0,105.42241444484446,74.03921568627452,6.496031971330576,2.701851217221259,2.7256154519368163,0.0877377199517636,0.0364921642156473,72.0,5.9304,0.08236666666666666,8.5,68.0,77.0,0.0,0.0,67.0,93.0,2.217391304347826,0.0,1.927301168971359,9.048903417609479,0.2129872626577895,54.78925692115613,4.695116447440888,2.4456655203211235,169.94262106928932,0.3137254901960784,0.3,0.4166666666666667,0.0,53.76344086021504,53.914218974116444,53.59278027668501,55.00000000000001,0.6191780821917808,0.3808219178082191,1.5185922589620928,1.1909522857523618,0.5366353043803351,0.46336469561966487,6.62881003265138,6.159669683696108,0.5402264735681505,0.4597735264318494,4.808702782349892,4.436208852115942,1.6053940189774587,0.4966387331335702,1.6413436714322387,1.8046140105820998,0.8118677573483337,-0.08993349272737827,-0.17124928392173994,0.0005274776923417905,0.0333274628471744,0.3255398094807327,3.9891219805604297,0.6920992966761372,1.23030239014406,1.3949295432312172,1.5555272292035616,0.778568184192166
0,104.15793994222666,74.88461538461539,5.429237646097092,2.14201664188625,2.1633307652783933,0.07250137585954,0.028604228397042884,74.0,5.9304,0.08014054054054054,9.0,70.0,80.0,0.0,0.0,68.0,88.0,2.1666666666666665,0.0,1.5297058540778352,7.602089496045305,0.20122176342091289,36.53345783488991,4.969641369796635,2.269660889415485,151.1186338257728,0.4423076923076923,0.3902439024390244,0.6875,0.25,49.99999999999999,49.99918916985982,50.00067494357665,51.21951219512195,0.512820512820513,0.48717948717948717,1.0954451150103321,1.067707825203131,0.4923511329902969,0.507648867009703,5.334214171782928,5.41644937901505,0.49314768950309823,0.5068523104969018,3.850574037104716,3.9037113030699717,1.8743558604366488,0.47953243493314424,1.5084282235588313,1.7481944410254036,1.0,-0.9403372523883595,0.0,0.0009995167758710373,0.041477085262881054,0.5595796180824868,3.933626199277108,0.7923027396226482,1.6048857482795098,1.2401497380760709,1.903148693521845,0.6577430444008953
0,102.00159420757349,76.5,6.786090215150641,3.2639027596559607,3.2974686230088515,0.0887070616359561,0.04266539555105831,74.5,5.1891,0.0696523489932886,9.75,71.0,82.0,0.0,0.0,66.0,93.0,1.8518518518518519,0.0,2.331662424079426,9.40457353638965,0.24792856529404467,68.88975706092339,4.03341986355624,2.545124763181257,151.73037483979746,0.5,0.38888888888888884,0.5,0.08333333333333333,50.98039215686273,50.997965484057296,50.95435629498232,55.55555555555556,0.5938697318007662,0.40613026819923376,1.796988221070652,1.4860462083439174,0.5483226358684323,0.45167736413156795,6.96397485040421,6.3205266935832345,0.55096061086041,0.44903938913958985,5.085573339542406,4.591154049780488,1.7948744012515505,0.38762583930986283,1.5650778989364027,1.7190015652516115,1.0,0.6180416263047928,-0.10290659005277424,0.0007563745424913684,0.03497108626971155,0.4329160594824639,4.048367439558378,0.7739560761961858,1.4651414438847594,1.2659981143124648,1.759980157018365,0.6772627427729669
0,104.9569045742279,74.27450980392157,4.104039139055811,1.8601075237738274,1.870174061526938,0.05525501480777358,0.02504368630212914,73.0,2.9652,0.04061917808219178,5.5,71.0,77.0,0.0,0.0,68.0,85.0,1.3076923076923077,0.0,1.3224127609048852,5.571227102584441,0.23736471993601377,23.145563911586695,4.2129259995738595,2.071437876230198,93.88467004003412,0.6862745098039216,0.7027027027027026,0.9230769230769231,0.4,56.71641791044776,56.380417934521375,57.05687794446859,56.75675675675676,0.7398843930635838,0.26011560693641617,1.1428571428571428,0.6776309271789384,0.4561043204965513,0.5438956795034486,3.762555850829625,4.1087400621065315,0.471375646233957,0.5286243537660431,2.780552910806755,2.944565211659318,1.5410381140414362,0.22523984933415986,1.3157982647072763,1.4284181893743564,1.0154425673365501,-0.06871905944810419,0.0,0.0002686513807269526,0.01076904179686284,0.37848510080523035,3.5053762067749967,0.782146929679932,1.5348088095442323,1.444057264827446,1.858244026719671,0.44489610525266626
0,112.77851362511406,68.92727272727272,3.7458843857825923,1.509230856356236,1.5140848160485194,0.054345460622010705,0.02189598973874782,68.0,2.9652,0.043605882352941175,4.5,65.8,71.2,0.0,0.0,64.0,79.0,1.3414634146341464,0.0,1.0706196407194943,5.04724361055524,0.2121196683434341,16.976155549992423,4.714320024208891,1.9368094559131346,95.1772864812038,0.45454545454545453,0.43243243243243246,0.6875,0.07692307692307693,42.37288135593221,42.81360489479939,41.920812713584674,62.16216216216216,0.5121951219512194,0.4878048780487804,0.7709342531250699,0.7523547938632787,0.31874484227947814,0.6812551577205218,2.8495471665291663,4.165903144579373,0.3271726606278847,0.6728273393721154,2.087373789827293,2.993391617034544,1.621592448894,0.6528333512271889,1.7014457153495692,1.4624868555677066,0.9154953673683268,1.2025728615364715,-0.866033474442858,0.00010577656730440304,0.024086344352867373,0.30663249707975915,3.660537842359311,0.7278524462181772,1.7917469676456041,1.3334152894857594,1.5228054643309208,0.6306937869299629
0,105.79911060728583,73.6923076923077,4.5137630991484015,2.2622217085916954,2.2701818187528677,0.06125148255629355,0.030698206901557452,74.0,2.9652,0.04007027027027027,5.0,70.0,76.0,0.0,0.0,65.0,84.0,1.5294117647058822,0.0,1.6052609585665623,6.077957603294956,0.2641119045806317,30.6516023280493,3.786273858377733,2.1934232923738395,92.05124794273549,0.4423076923076923,0.41025641025641024,0.625,0.09090909090909091,58.0246913580247,57.846901369089935,58.198526738890145,53.84615384615385,0.685823754789272,0.31417624521072807,1.337908816025965,0.9055385138137416,0.4422842395203747,0.5577157604796253,4.042112515391164,4.539041202761777,0.45835536278830635,0.5416446372116936,3.0107037040434483,3.2728347835148264,1.6263989029384351,0.7461671551965106,1.779654867010345,1.6960858429938894,0.5850920405574467,0.31534266329258553,-0.6119977252207607,9.776884608968717e-05,0.03130401462706008,0.16272307230781324,3.7935451893704863,0.8232073449674328,1.7365649440898223,1.4040842304886707,1.8065450090295794,0.8769907258678603
0,104.77824887962487,74.23076923076923,8.033301727906384,2.7759471091757453,2.787788497336617,0.10822064503915337,0.037396178672833874,72.0,8.1543,0.11325416666666666,11.0,67.0,81.0,0.0,0.0,63.0,90.0,2.1666666666666665,0.0,1.9712641509805773,11.076118099626001,0.17797428063241214,68.59339118739474,5.618789391627876,2.5432523844278854,248.93749951438437,0.6346153846153846,0.6,0.8333333333333334,0.4444444444444444,41.57303370786517,42.247239192417126,40.90203285503403,67.5,0.6335877862595419,0.36641221374045796,1.57797338380595,1.2,0.3523946721271661,0.6476053278728339,6.575098217559171,8.913387436116132,0.3611229362112952,0.6388770637887049,4.781313447712344,6.359578428886341,1.6963800527088424,0.5023176955052229,1.3800969422420404,1.5442420188579766,1.0,0.8338586246932165,-0.1732245786188324,0.0022631022635865063,0.07556021119612552,0.27273505742474313,4.377478419689723,0.46570021313161925,1.3763695222284718,1.2693155586604858,1.4354830686353517,0.5481192036674126
0,105.90171500068794,73.71153846153847,6.505914468921573,3.013043539769882,3.0398658381128416,0.08826181904093967,0.04087614507384134,72.0,7.412999999999999,0.10295833333333332,9.25,67.2,79.80000000000001,0.0,0.0,64.0,89.0,2.6,0.0,2.1495097480269183,9.005357882296254,0.23869231807573874,60.81213745679937,4.189493855779192,2.490960378452231,150.9115660678915,0.40384615384615385,0.375,0.5333333333333333,0.0,53.09734513274337,53.07693733663746,53.10237945308749,57.49999999999999,0.6781857451403887,0.32181425485961124,1.7720045146669348,1.2206555615733703,0.4544344213052249,0.5455655786947752,6.070669459100939,6.6515744682424165,0.46651900407468033,0.5334809959253198,4.471746173569162,4.781916085972985,1.7432946317764972,1.2057918570366555,1.9535235439957215,1.9830050653711893,0.14450244071763407,0.0860028111545823,-0.4755500742491981,0.00029492764385363046,0.08280420046690898,0.48902108722991855,4.327668987655437,0.8335239954039958,1.7610770077598652,1.3152961989622185,1.9295872196553505,0.6577430444008953
0,91.33510993179907,85.54545454545455,10.16938987777821,5.574026142911465,5.627412734674678,0.11887703364034038,0.06515864779173869,85.0,10.3782,0.12209647058823529,12.75,76.0,91.8,0.0,2.272727272727273,71.0,110.0,3.142857142857143,0.0,3.9791817052239984,13.864476145236727,0.28700555747943524,173.3193728007117,3.484253088275661,2.9458172187242964,193.2293753054612,0.2727272727272727,0.2682926829268293,0.2727272727272727,0.0,54.65116279069768,54.47797202562129,54.797216659774804,53.65853658536586,0.6991017964071856,0.3008982035928144,3.3345235970146647,2.187627547301936,0.38593627367309175,0.6140637263269083,8.613135202672805,10.864511068718961,0.409867758388996,0.590132241611004,6.530893722859418,7.836559035955484,1.7139968517094188,2.244893664791478,2.191980740092997,2.1276123459296192,-0.1966657143096171,0.46836327173590675,-0.5286732486143645,0.0013769048650050456,0.3303566459721524,0.3328654487623548,4.453416561671607,0.8695338993362978,1.7063421918813468,1.4811321500665038,1.8986357026002143,0.9926239306613268
0,91.469687646826,84.95555555555555,6.93133712521865,4.356291166493893,4.399392135601315,0.08158780293874948,0.051277295969716245,84.0,5.9304,0.0706,8.0,79.0,89.0,0.0,0.0,75.0,105.0,2.25,0.0,3.110840012182457,9.050758322684615,0.3437104274882159,88.45298984695638,2.909425842293612,2.653682627276379,105.33004062549043,0.3333333333333333,0.3170731707317073,0.38461538461538464,0.1111111111111111,46.25850340136054,46.61110101536311,45.893004762957204,53.65853658536586,0.41437125748502984,0.5856287425149701,2.0058055274511255,2.384543250106382,0.38788529630777774,0.6121147036922222,5.636851929762777,7.081110544086603,0.3906919399206203,0.6093080600793795,4.230682893577811,5.283378324954706,1.5107123923644046,0.8214297053145829,1.6973085358105302,1.6831915125001884,0.5997391960265528,0.17898992361030874,-0.5171859176981376,0.0002941949477837127,0.049229508659926535,0.45057273883214854,4.146756984930102,0.9542128828065556,2.014620896814121,1.731420097132698,1.8442785885335573,0.9763294393474977
0,91.24661679727056,85.35555555555555,8.051413076302353,4.624539289092875,4.677495490024188,0.09432793242218326,0.0541797104944492,84.0,8.8956,0.1059,14.0,77.8,93.4,0.0,0.0,74.0,102.0,3.2142857142857144,0.0,3.3074887799655963,11.018183606151167,0.3001845765321165,114.48754887840371,3.33128374399679,2.7657283674024438,146.81878374217325,0.3333333333333333,0.3,0.4166666666666667,0.0,49.032258064516135,49.013855997771365,49.059381097015276,57.49999999999999,0.5993623804463337,0.4006376195536664,2.5608864744232065,2.0937337295445566,0.4302173052197542,0.5697826947802458,7.226931577439044,8.316960379481962,0.4442019706230953,0.5557980293769048,5.421562485108389,6.064468273645485,1.5890952955497353,1.481064644579841,1.9073819528904494,2.0183242286771024,-0.12958208826483286,-0.3932619912818165,-0.4250928876111779,0.0008875533935783129,0.15498244265235145,0.2643788967032976,4.180881575003209,0.997846421204054,1.926784655804831,1.4566071696611411,2.6119210321646325,0.9763294393474977
0,92.56741429703338,84.2,7.1782499766497905,3.1622776601683795,3.1869182924825408,0.0852523750195937,0.03755674180722541,83.0,7.412999999999999,0.08931325301204819,9.0,79.0,92.0,0.0,0.0,69.0,97.0,2.5,23.4375,2.253491535701857,9.728013644699455,0.23164970959202208,68.86998286589419,4.316862739699457,2.5450000848993612,167.97799853636397,0.35555555555555557,0.3076923076923077,0.5,0.0,44.73684210526317,44.01136288165504,45.38972043989018,61.53846153846154,0.5431818181818183,0.4568181818181817,1.6670542185069628,1.528793413880888,0.31338929936512716,0.6866107006348731,5.445857245448609,8.0608242961656,0.3251755291887122,0.6748244708112878,4.027184556563491,5.801469539520967,1.7549521742295853,1.1914333333474483,2.0142489466614375,2.154294664995595,0.18125286694775333,-0.3849387133416453,-0.3824561018947778,0.0008860047838550692,0.11960173183076636,0.28765036642766306,4.203538241862184,0.8085210154880491,1.67426126028038,1.4349502647082548,2.0785627797940873,0.7322470795106233
0,104.59356051245263,74.68627450980392,2.760363715733355,1.7320508075688772,1.7477682562488142,0.03695945116891602,0.023191018951434165,74.0,2.9652,0.04007027027027027,3.0,72.0,77.0,0.0,0.0,70.0,81.0,1.1590909090909092,0.0,1.2358587859361239,3.7064753046086074,0.33343235402093874,14.390630856532539,2.9991090784705388,1.8650499429189349,44.464494940714125,0.7450980392156863,0.75,0.9629629629629629,0.3333333333333333,53.2258064516129,53.31637608800174,53.13440977108881,47.22222222222222,0.5533333333333332,0.4466666666666666,0.9202927661946517,0.8268454930564446,0.5458090201437993,0.4541909798562006,2.7383027664625263,2.497930572065033,0.5465633019674936,0.45343669803250647,2.0426992946009612,1.8605551069835176,1.429298470117802,0.43036300135037964,1.0964808308477005,1.2445597736466445,1.0,1.0813715771789703,-0.1559208334956619,0.00047707138558644914,0.031021652043804446,0.4075562275647724,3.282419157423834,1.0403650598988545,1.9898885222727225,1.5440432437026104,1.8740465953457697,1.0010162368184992
0,107.44262433636331,72.58490566037736,4.387192734207461,1.5689290811054724,1.5766011517037355,0.060442218589289165,0.02161508741840136,73.0,2.9652,0.04061917808219178,6.0,68.0,75.0,0.0,0.0,65.0,82.0,1.7096774193548387,0.0,1.114825365596232,6.070724448060837,0.18363959279231312,21.2616632281905,5.445448798892449,2.0345673448702257,132.23127661639964,0.6226415094339622,0.5609756097560976,0.7391304347826086,0.2,43.93939393939394,43.5501580987538,44.3189740604637,60.97560975609756,0.49218750000000017,0.5078125000000001,0.7859052479933757,0.7982824700322462,0.4270066615875735,0.5729933384124266,3.9669602225870486,4.595315214073532,0.4291530423981149,0.570846957601885,2.8595821780822646,3.298043118172991,1.5991764332574547,0.46671226744509875,1.2442893281829601,1.4776454619055095,1.0,-1.0793313284328523,0.0,0.0006261706777595462,0.0414895985291479,0.3014102062917061,3.6395631283726146,0.7332521808531672,1.5746792365434583,1.3491713542818955,2.0171617205385397,0.7565177958857056
0,103.59850886299776,75.54901960784314,9.073728507047576,2.929163703175362,2.943342539719502,0.12010385514129936,0.03877169708329703,72.0,7.412999999999999,0.10295833333333332,11.5,68.0,83.0,0.0,0.0,65.0,100.0,2.3181818181818183,0.0,2.081257469190495,12.687202293682256,0.16404384678463602,82.95480499657072,6.095931176942248,2.625811656718296,309.36124804092344,0.6666666666666666,0.6578947368421053,0.8,0.2222222222222222,57.73195876288659,58.4488400975461,56.99600102380767,52.63157894736842,0.671328671328671,0.32867132867132864,1.714285714285714,1.1994896874104761,0.4364389796748947,0.5635610203251052,8.381613502062667,9.524371745309878,0.4426578324049379,0.5573421675950623,6.049389242236082,6.787946399797998,1.6667096528120098,0.502873308933155,1.5566461229139996,1.4471960258670866,1.0,1.1501706627369703,-0.7176494458994277,0.0008514889061651255,0.03384411773536474,0.4464612704973465,4.160279940427108,0.5659245069376285,1.1945044380878858,1.336301384439438,1.3523963707650168,0.3336720789394997
0,98.8419520705384,78.85416666666667,3.7811941338701702,1.9351177873875869,1.9541459519391358,0.0479517353832941,0.024540463353924482,79.0,2.9652,0.037534177215189875,4.25,76.0,81.0,0.0,0.0,72.0,87.0,1.92,0.0,1.381789854044404,5.134815232757707,0.26910215682722805,22.29034000822864,3.7160608885124287,2.0550868030526743,76.32514422475504,0.4375,0.38888888888888884,0.6428571428571429,0.1111111111111111,52.94117647058824,52.8166098686645,53.06645724852065,47.22222222222222,0.5568181818181819,0.4431818181818181,1.03209369308428,0.9207747210672768,0.48938932243649935,0.5106106775635004,3.592130167172964,3.6691863316880657,0.4939507513276123,0.5060492486723878,2.642784188050399,2.674953684047917,1.583232398841405,0.5536786561295248,1.1078911057754044,1.3847304338401667,1.0,-0.8173436925973538,0.0,0.001430210545691022,0.0644217428800007,0.22495052241278746,3.6004128972590452,0.9551437172539848,1.9712648671352988,1.4796258311677093,2.106363823329894,0.6981203125901446
0,104.05226759254026,74.74509803921569,3.964054173468884,1.6552945357246849,1.6444092047459056,0.053034302950396926,0.02214586078750234,73.0,2.9652,0.04061917808219178,4.0,72.0,78.0,0.0,0.0,70.0,86.0,1.3076923076923077,0.0,1.1627728997214075,5.271428571428572,0.22058022487939977,19.25631138624186,4.533497962234561,1.9915432100908943,95.5920427465459,0.6274509803921569,0.6206896551724138,0.8333333333333334,0.4444444444444444,36.36363636363637,36.74875730420208,35.96175438888064,62.06896551724138,0.37956204379562025,0.6204379562043796,0.7284313590846834,0.931314629314664,0.30794625480130117,0.6920537451986987,2.92526886955433,4.385289183678745,0.31137653746914556,0.6886234625308545,2.1316437558937498,3.1700243030034727,1.6184326459199665,0.37955328608828154,1.6572427205969371,1.5525544787941268,0.8124552258371374,0.5292945628928951,-0.7758196164805712,2.383527805520251e-05,0.006240518642366597,0.3575551750546482,3.516261629558207,0.8296308729172166,1.5440180258225444,1.3566711659150898,1.4611938740858366,0.6673441578789994
0,96.91877156098373,80.36170212765957,9.933311396540809,4.2732738696715185,4.269881035575935,0.12360752863050517,0.05317550221725215,79.0,5.9304,0.07506835443037975,8.5,72.4,84.60000000000001,0.0,2.127659574468085,68.0,112.0,3.1333333333333333,0.0,3.0192618351155813,13.234050650437963,0.2281434395912383,125.52881888746253,4.383207344430711,2.8057135524879495,232.03035203027082,0.44680851063829785,0.425,0.6470588235294118,0.2857142857142857,63.1578947368421,61.79579172386712,64.54156914155391,57.49999999999999,0.8880952380952382,0.11190476190476192,2.879043050891891,1.021980647783726,0.5177081509446635,0.48229184905533656,9.52215603613801,9.19068229468291,0.5364476851293098,0.46355231487068993,7.0342144005371505,6.538848732240346,1.3380404251637599,1.3170744474566891,1.8164149276223813,1.432845015921846,0.8517758109832663,0.9791478567357919,-0.7912287247248783,0.0027030398393469587,0.19974227669818959,0.35135106552469475,4.307159266931027,0.49710229590306204,1.2422347670183547,1.435641565547541,1.4619811820113455,0.7090964491503368
0,100.38318240352626,77.5,7.672505909986353,3.2576440717118227,3.284937796447691,0.09900007625788843,0.0420341170543461,75.5,5.1891,0.0687298013245033,7.5,72.0,82.2,0.0,0.0,67.0,99.0,1.9230769230769231,0.0,2.322801791644157,10.57983095938927,0.2195499909743589,77.20416918993307,4.554771309996498,2.594610863759851,192.75484207375587,0.32,0.2857142857142857,0.5,0.0,45.83333333333333,46.04759034423652,45.64245508461223,57.14285714285714,0.5134615384615384,0.4865384615384615,1.6677080080157918,1.6233966448981796,0.5447145720701201,0.45528542792987997,7.808421085690164,7.1387242051924735,0.5432719815171129,0.45672801848288713,5.645914002685958,5.176717103747682,1.8193837260446373,0.9404272688835331,2.013284605400135,2.184348664882609,-0.060038639707876484,-0.8509780361320658,-0.31809963923572787,0.00031781702929624704,0.0615042305596377,0.43012337358280384,4.316565630242719,0.7505544704247191,1.555309498751424,1.3471246628057059,1.7727392238992974,0.7901398665684615
0,100.71492781518239,77.36734693877551,3.717603829255145,1.7853571071357126,1.8041274585030913,0.04805132884028016,0.023076364613466082,78.0,2.9652,0.03801538461538461,5.0,73.6,80.0,0.0,0.0,69.0,82.0,2.0416666666666665,0.0,1.2757107600323871,5.137450281031527,0.24831593305001143,20.58968598562201,4.0271278114022495,2.020619833182468,82.75667562575346,0.6122448979591837,0.6388888888888888,0.8695652173913043,0.2,49.23076923076922,49.25324155979341,49.20908852096799,58.333333333333336,0.5490196078431372,0.45098039215686275,0.9453131868733217,0.8567628336893993,0.4127775281936736,0.5872224718063265,3.3006969733302953,3.936850883678368,0.4206914245715053,0.5793085754284946,2.4277785659969453,2.8489329084334925,1.6073290357084762,0.5896764540765647,1.7063660946304706,1.670225410858602,0.548518733275273,0.11507726065746215,-0.5612890060676833,2.7571916273204893e-05,0.016428105160972078,0.2794083345857885,3.387512212541564,0.8664728140070428,1.9435082412840143,1.423958629284083,1.8480853356646096,0.687515491116148
0,99.25172949346117,78.57142857142857,4.242640687119285,2.2453655975512468,2.268736018263777,0.0539972451087909,0.028577380332470415,77.0,1.4826,0.019254545454545455,4.0,76.0,80.0,0.0,0.0,74.0,90.0,1.4,0.0,1.6042386232364834,5.83452368807143,0.2749562276208284,29.40520748761148,3.636942536828172,2.1753943581585045,84.87930953311428,0.4897959183673469,0.48387096774193544,0.6666666666666666,0.25,48.529411764705884,48.471738254922734,48.5870803286958,48.38709677419355,0.34297520661157016,0.6570247933884297,0.9396694756158972,1.3005727052733835,0.45035705139890797,0.549642948601092,3.915469911096814,4.325593836915594,0.4428070701079017,0.5571929298920983,2.8472691608020435,3.1939201151300187,1.5311642478584016,0.5310144026645129,1.0001498451938886,1.2656570465261452,0.9351516446322379,-0.35825628777949015,0.0,0.0026368109659470136,0.08399519331988589,0.39087905198322215,3.327898664421122,0.8170013294561222,1.49236906863635,1.4619041824707442,1.811851114621089,0.8021014063021725
0,99.03513648295218,78.85416666666667,5.867289719494194,2.5723571440598496,2.60007827392317,0.07440684452727116,0.03262170222321606,77.0,4.4478,0.057763636363636364,6.25,74.0,82.6,0.0,0.0,72.0,95.0,1.7142857142857142,0.0,1.8385329791068865,8.167590110590522,0.22510103399079112,47.1753609609145,4.442449607054715,2.380685341803182,145.13642990950737,0.5,0.4864864864864865,0.7777777777777778,0.2,50.60240963855422,50.62662794855889,50.57895813691551,56.75675675675676,0.630225080385852,0.3697749196141479,1.4596008983995232,1.1180339887498947,0.4310047823879248,0.5689952176120749,5.362100865457656,6.160957922537237,0.4406131656136448,0.5593868343863552,3.929539443366769,4.4276067193956115,1.701286879088618,0.574677948449906,1.126608930638712,1.413947904863665,1.0263736870117184,-0.5220538118753966,0.0,0.000519451767334035,0.038034791202443165,0.4612847657013015,3.829115106190033,0.6941163501324319,1.4757608981312995,1.3585025964427102,1.6206057572387476,0.465413541726763
0,101.95166949423677,76.56,7.5109715668181725,3.0237157840738176,3.05059378629466,0.09810568922176297,0.03949472027264652,75.0,7.412999999999999,0.09884,11.0,70.0,84.0,0.0,0.0,66.0,94.0,3.3333333333333335,0.0,2.1570955529344995,10.4385145032238,0.20664775167657318,70.73884347137492,4.839152576724434,2.5566280650997557,202.05425742180327,0.32,0.3023255813953489,0.5384615384615384,0.0,46.36363636363636,46.02777534703704,46.69792854802905,65.11627906976744,0.6584821428571429,0.3415178571428572,1.7529736639968858,1.2624381172952597,0.46965750948420576,0.5303424905157943,7.1536771183801555,7.601808253302485,0.4774123931010425,0.5225876068989574,5.208071283148036,5.448909924011305,1.7750602273345384,1.0021578517966043,2.044844902798973,1.8150744659672404,0.7120673519318146,0.7489971079412951,-0.7292756938638106,0.0005609323155616601,0.07792006956244774,0.40926893666884334,4.2312723801129115,0.6475185795805621,1.4235562430416833,1.220367030558757,1.86952896330704,0.6772627427729669
0,97.55100222714529,80.14583333333333,7.612949727017727,3.3005479880281388,3.3337341726306002,0.09498871507586455,0.04118177889923334,78.5,6.6716999999999995,0.08498980891719744,10.25,74.0,86.0,0.0,0.0,69.0,100.0,2.4,0.0,2.357306040140422,10.465705414554568,0.2252410082995587,77.50582579711318,4.439688880588088,2.596304457841617,185.85790382603386,0.3333333333333333,0.29268292682926833,0.5,0.0,52.45901639344262,52.771897896444784,52.16517718383912,53.65853658536586,0.5742187500000001,0.42578125000000006,1.7876387145933719,1.5393392145304763,0.5789238376471557,0.42107616235284434,7.963045960581838,6.791236180099914,0.578696333750763,0.42130366624923704,5.770864456225418,4.923944255944079,1.825274134397117,0.7346585922183491,2.008321759287999,2.0870570626139493,0.6226614824062917,-0.14094817439694296,-0.39282735659811174,0.0006390152928646309,0.05659630830928788,0.43663985537063477,4.335500657991217,0.835932170886071,1.563809160510368,1.3774672598826756,1.5524076603004366,0.6981203125901446
0,96.42252372385185,81.02127659574468,8.570651037374018,3.8192874363864173,3.86142823568219,0.10578272026170664,0.0471393144722063,80.0,8.8956,0.111195,12.0,73.0,88.0,0.0,0.0,69.0,101.0,2.764705882352941,0.0,2.730442090516082,11.941736576552342,0.22864698722942176,102.43546178659138,4.373554237986139,2.717420439571738,208.91133045317832,0.2978723404255319,0.2682926829268293,0.36363636363636365,0.125,50.37593984962404,50.39468507473941,50.354391519568544,53.65853658536586,0.5052160953800298,0.4947839046199701,1.9407902170679516,1.920648038785058,0.49686168310951107,0.5031383168904886,8.417540990354702,8.470541667418116,0.4972767605727939,0.5027232394272062,6.1082592852206385,6.141618883826778,1.7682342346601612,0.7207758136311471,1.9029624718639628,2.0761369964014444,0.26831623758938683,-0.62987100248864,-0.2597387131165549,0.0003516014934117058,0.045074115011675575,0.40636430275467283,4.453005074851736,0.8390548819367503,1.637714468475106,1.349455056628153,1.8866485433324927,0.7090964491503368
0,97.6673349182893,79.875,7.233565378505014,3.215653204547234,3.2501334207296693,0.09056106890147121,0.04025856907101388,78.0,3.7064999999999997,0.047519230769230765,4.75,76.0,83.6,0.0,0.0,69.0,100.0,1.8461538461538463,0.0,2.298191381558979,10.077888161079882,0.22804295352616016,72.76216266414059,4.385138784326805,2.5688757088076652,176.77175295703734,0.4166666666666667,0.4054054054054054,0.6,0.09090909090909091,49.01960784313726,48.95935143471573,49.08644110012744,56.75675675675676,0.5802469135802467,0.419753086419753,1.750776225365294,1.4890907643081486,0.5497758932946469,0.45022410670535284,7.472439042755857,6.762136092946663,0.5512824149813936,0.4487175850186064,5.4269034743123274,4.8961145740209036,1.7083472904537544,0.7944556271127485,1.8495534204137813,1.8485718907980973,0.35665980313189927,-0.006948678207104209,-0.5012354744332936,6.430197881603924e-05,0.031976728823049326,0.27041321450844436,3.860320755758431,0.7303886356519645,0.9838551109488035,1.2766027521923344,1.7335923990794686,0.8144736980218353
0,100.79167752879141,77.48979591836735,4.761488077007334,2.1505813167606567,2.1696651374142135,0.0614466462400209,0.027753090471759854,76.0,4.4478,0.05852368421052632,7.0,74.0,82.0,0.0,0.0,69.0,90.0,1.8148148148148149,0.0,1.5341849315696328,6.500340962142945,0.2360160706191423,31.330240080656335,4.2369996135292585,2.202933832813645,110.16776857763226,0.40816326530612246,0.36585365853658536,0.6,0.3333333333333333,46.34146341463414,46.00684285565826,46.65924955062,58.536585365853654,0.5315315315315317,0.46846846846846846,1.1204102592069434,1.051847412281555,0.38841820874332994,0.6115817912566703,4.05122093094463,5.083506820374061,0.3959937425901272,0.6040062574098729,2.9721801913965478,3.6707236733042845,1.6495474810095831,1.2173811380379105,1.903124884984745,1.992877267019543,0.17027024893231868,-0.2012648195918798,-0.42627421336636245,0.0006220313063656525,0.10788012168168465,0.13425325641391828,3.9563755386829356,0.9182445179963953,1.8344429895486216,1.42795174966664,1.781884489492775,0.687515491116148
0,93.75883913548341,83.3913043478261,5.934749871616102,2.985148423631748,3.004710107195506,0.0711674906398177,0.035796878906950054,84.0,6.6716999999999995,0.079425,8.0,77.0,88.0,0.0,0.0,71.0,94.0,2.4210526315789473,0.0,2.1246508922977,7.997095432313869,0.26567782143909674,53.37891370500814,3.7639573923909087,2.4343398413330797,120.40290588045343,0.391304347826087,0.39534883720930236,0.5882352941176471,0.2857142857142857,55.75221238938052,56.187826401369065,55.33787998777928,51.162790697674424,0.6708229426433915,0.32917705735660846,1.7483758697197183,1.224744871391589,0.5651157546338708,0.43488424536612913,6.011751025518029,5.273744870651052,0.5721466399149123,0.4278533600850877,4.427074009695075,3.8283406954396235,1.720592592777018,1.7011833517816841,2.082838748698492,2.060856977247194,0.0615600506096623,0.3230091835035527,-0.5129214593055333,0.000948637593873176,0.19290546328335628,0.4017088098505086,4.159886826639609,0.9181853759608117,1.9218436973688122,1.4164901607334077,1.7187628524747478,0.8405420367912846
0,93.19909395573667,83.80434782608695,11.295268557561597,4.823553323709262,4.866396837683728,0.13478141469463903,0.05755731592493542,80.0,9.636899999999999,0.12046124999999999,17.25,74.0,94.0,0.0,0.0,69.0,110.0,2.7058823529411766,0.0,3.4410622038709335,15.680442041800436,0.21944931110346613,169.5120974623877,4.5568609669889515,2.936170807625854,285.81437714165185,0.30434782608695654,0.2631578947368421,0.4,0.0,54.90196078431373,54.78396633933404,54.96575961022862,63.1578947368421,0.6914995224450812,0.30850047755491883,2.8683222844151817,1.9158430377915998,0.37610592454892877,0.6238940754510712,9.616419244172215,12.385505381153282,0.39066312255328545,0.6093368774467146,7.095871750777294,8.862031316014162,1.8276727582752839,1.5059086066921292,2.289024359547723,2.3195558896616584,0.33911603396298595,-0.136005955301302,-0.4797255092518525,0.0025352410553423897,0.24123944826868954,0.3803278983451852,4.482816239080334,0.6983383389409908,1.3529973539089204,1.2426021044774087,1.7482429116232252,0.6003871691366318
0,93.13793235381553,83.44444444444444,7.359457599688727,3.532318321905987,3.5671599377013714,0.08819589666737489,0.042331378025504504,81.0,5.9304,0.07321481481481482,9.0,77.8,89.2,0.0,0.0,75.0,103.0,2.5,0.0,2.522362981525622,10.021475354833061,0.2516957725500129,79.41254592610099,3.973050440492783,2.606859229467665,159.26330829162825,0.4888888888888889,0.4871794871794871,0.7368421052631579,0.25,46.218487394958,46.46852561205858,45.97313925444552,58.97435897435898,0.5591985428051002,0.44080145719489966,1.8893828203570777,1.6774842736586513,0.43727003727247127,0.5627299627275286,6.6268405727284385,7.517642736334749,0.44455709531213694,0.5554429046878632,4.87261651570387,5.446508321830542,1.7456858313453052,1.048556490733433,1.9714165225437301,1.8783134653842057,0.24308307958269282,0.20868045305550353,-0.5887916464037161,0.00027816750924659553,0.06022165811874412,0.43881967681128,4.047548241669875,0.905352154590279,1.5232786500552509,1.3870374494396074,1.8463167064641144,0.6102058995921861
0,98.18032518875887,79.28571428571429,4.143267631552018,3.5997685110758626,3.625901697587426,0.05225742958714256,0.04540248572528115,79.0,4.4478,0.05630126582278481,6.0,76.0,83.0,0.0,0.0,68.0,87.0,1.8846153846153846,15.625,2.5638996782798826,5.132206056569844,0.4995706816950152,41.33852584681536,2.0017187490007546,2.3233250953636397,41.092932348684336,0.5714285714285714,0.5609756097560976,0.782608695652174,0.3333333333333333,43.13725490196079,43.20785424865098,43.064905427797115,56.09756097560976,0.5176848874598071,0.482315112540193,1.850819255058045,1.786474002526241,0.4720372224653046,0.5279627775346956,3.526080378256336,3.7291146634513463,0.4812023649405962,0.5187976350594037,2.8159167911017864,2.923848964538864,1.1151905981742771,1.6521517731615596,1.6469611327479639,1.1950431871322604,0.8591677037765617,1.4647487608660752,-0.7735329483385855,0.0026471495737091684,0.2717431692621482,0.27804442684922526,3.6526901402903587,1.111261707522739,1.7110043010011016,1.659492566066238,1.767133342719948,1.031273236674222
0,97.82493992940655,79.97872340425532,8.84280439901409,3.5904462602615412,3.6151185493153424,0.11056446042927966,0.04489251775267157,77.0,7.412999999999999,0.09627272727272726,11.5,72.0,86.0,0.0,0.0,68.0,100.0,2.35,0.0,2.556274841014153,12.256724468062023,0.2085610105436546,98.43098738334137,4.794760043563783,2.7001019515948395,235.07221097773737,0.5319148936170213,0.47058823529411764,0.75,0.25,57.00934579439251,57.61548549608187,56.41623908991714,47.05882352941176,0.6290050590219226,0.37099494097807756,2.035790864613663,1.5634719199411433,0.5672548416622489,0.432745158337751,9.231314113410368,8.062886234193117,0.5698493782194618,0.43015062178053814,6.684370004154988,5.807520076159243,1.7954606030820799,0.6743764913127483,2.0238815860136072,1.7157008120474306,0.9275386242041925,0.9057619905403396,-0.9569862353390591,0.0006250007028219942,0.04463283495509869,0.3081377807420247,4.270786800025778,0.6384107637373112,1.157545149124019,1.3291025582641045,1.4783542133240284,0.5909137076252805
0,91.01010552710345,85.68888888888888,6.888139418338209,2.969542358374741,2.9752325046388597,0.08038544445674778,0.034654928974808964,86.0,7.412999999999999,0.08619767441860464,9.0,81.0,92.0,0.0,0.0,70.0,98.0,2.142857142857143,23.4375,2.103807079636774,9.342439934639492,0.22518818363887677,61.74703371992459,4.440730343132262,2.4975862092212506,165.9490259865767,0.4222222222222222,0.3684210526315789,0.6428571428571429,0.125,41.34615384615384,40.66045011948585,41.98419574996532,57.89473684210527,0.37886597938144323,0.6211340206185568,1.3074028933658495,1.6740148091923646,0.34759999471509995,0.6524000052848999,5.50807943602953,7.546008538209808,0.34913672167806414,0.6508632783219357,4.003013951961246,5.465554429338833,1.5357844626989332,1.1995018042742949,1.7028426128855851,1.846841387826709,-0.3320937556519894,-0.5938938479341331,-0.37995118104199616,0.00014170561094252037,0.07074931607963199,0.4859606468498634,4.153212408384619,0.8493039737541599,1.8977422623605456,1.5621074911984136,1.8156228575092153,0.8542882594290605
0,98.58652269559822,79.04166666666667,11.617958097471773,7.605988681939202,7.687465920894958,0.146985236868383,0.09622758480049597,76.5,7.412999999999999,0.09690196078431372,10.25,70.4,85.2,0.0,2.083333333333333,64.0,109.0,2.0,0.0,5.435859282805312,15.642041123484752,0.34751598208266987,267.123134196411,2.877565497871439,3.13368161168129,180.0439914129037,0.4791666666666667,0.4594594594594595,0.7058823529411765,0.42857142857142855,48.57142857142856,48.238250409554645,48.95185163105818,56.75675675675676,0.7072453107760206,0.2927546892239794,4.571889534212684,2.941457787057886,0.44201043284581515,0.5579895671541848,10.399433530979875,11.684401257382406,0.47059558681473035,0.5294044131852698,8.032757673374444,8.519900429481645,1.4410148523052504,0.9541129623655271,1.724349192918672,1.456968173324841,0.8377102372105991,0.9257134930579429,-0.7802404224033543,0.0007556784395025859,0.07982025682891285,0.49394602710588886,4.323934896284056,0.7318251225846006,1.226884572489484,1.457159148784614,2.1144713981603998,0.5817669271584537
0,96.38859531454914,80.8936170212766,5.057211994220392,2.5875958289333063,2.6158195804173276,0.06251682370551247,0.03198763912673998,80.0,1.4826,0.0185325,2.0,79.0,82.0,0.0,0.0,72.0,97.0,1.4242424242424243,0.0,1.8496637636736417,6.987151769861055,0.2647235704328237,40.60157098776993,3.777525357356723,2.3155129479261762,105.57657194540018,0.46808510638297873,0.46341463414634143,0.8421052631578947,0.18181818181818182,48.86363636363637,48.83607467491023,48.895401208587195,56.09756097560976,0.5876623376623378,0.41233766233766234,1.4181364924121764,1.1879019787470306,0.46669519096653056,0.5333048090334693,4.773279218415199,5.102557727073554,0.4746193209733095,0.5253806790266902,3.521030077126971,3.704538194514206,1.6924704073709833,0.4930008940824413,1.199469513288542,1.4459699603297627,1.0100489887528248,-0.0975998378866052,0.0,0.0019762957440839658,0.06264030427735592,0.47880413607733074,3.194277409993709,0.8074293746501614,0.9838099709866927,1.5300377937986938,1.8591460917197522,1.063644673725505
0,93.80469690989584,83.17391304347827,4.259913133314064,1.9550504398153574,1.9771421064483223,0.05121693782865837,0.02350557245988145,82.0,4.4478,0.05424146341463414,6.75,79.0,87.0,0.0,0.0,78.0,94.0,1.6428571428571428,0.0,1.3980505908390632,5.9298082821138705,0.23576657529654285,26.044343365398838,4.241483334701785,2.1226835223590808,100.60473202625042,0.3695652173913043,0.3142857142857143,0.36363636363636365,0.125,50.0,49.99888470509811,50.001125850727945,51.42857142857142,0.5232558139534884,0.47674418604651164,1.0112997936948631,0.9653072991634227,0.5382577027057219,0.46174229729427796,4.350466001846366,4.029400926863095,0.5374677213544028,0.4625322786455971,3.158265481712104,2.929837027141898,1.6735665266102584,0.1752000966480809,1.553528142218414,1.6394601159486313,1.0,-0.29926336654452435,-0.009520968456848125,0.00021024291600291832,0.007507229762087766,0.11686725300273348,3.681625957074392,0.8698213528914003,1.7169373193897761,1.4432382983760754,1.917665741271267,0.7204646029639583
0,99.67167704367282,78.14285714285714,2.92261298612503,1.3149778198382918,1.3004022836379443,0.03740089744584134,0.016827869723707575,78.0,2.9652,0.03801538461538461,4.0,76.0,80.0,0.0,0.0,73.0,86.0,1.6896551724137931,0.0,0.9195232730308625,3.832225017083456,0.23994501077879624,11.070407309513142,4.167621559432606,1.7511337099750917,63.885054407175986,0.5714285714285714,0.6060606060606061,0.85,0.2727272727272727,36.73469387755103,36.97529640212961,36.47698927121422,57.57575757575758,0.3132530120481927,0.6867469879518072,0.5259237061407777,0.778705964227451,0.3087122212496669,0.6912877787503332,2.1292561630231033,3.186254348571126,0.30896974841155755,0.6910302515884427,1.550859044602816,2.3193317736485883,1.5848078484580141,0.758891474194638,0.8398803951565181,1.2193261322538371,1.027928041786284,-0.883032090819099,0.0,0.0005377609518725081,0.05562511786609852,0.42442848938379196,3.2783750302843178,0.9266893595462935,1.947169809184186,1.4631123184105133,1.5215011040270119,0.687515491116148
0,99.83368663399709,78.22448979591837,4.967667570242133,2.025874296857203,2.044604558690614,0.06350527287812797,0.025898210421602647,78.0,4.4478,0.05702307692307692,6.0,73.0,81.0,0.0,0.0,73.0,91.0,1.5806451612903225,0.0,1.4457537482950613,6.908068440198611,0.2092848038218763,31.376235154472393,4.778177783280944,2.2035709411907476,132.03191658536497,0.46938775510204084,0.5,0.6666666666666666,0.0,53.84615384615385,54.06517451358496,53.62815565476122,53.333333333333336,0.6548223350253808,0.3451776649746192,1.1714693446829563,0.8505317485662418,0.5210376813007676,0.4789623186992323,4.986446890631154,4.780874081314313,0.5266658324991659,0.4733341675008343,3.6219465083444438,3.433668682087872,1.8247218027205887,0.2229283768123267,1.6746329535229894,1.7860971419291527,1.0,-0.5498436423929629,0.0,0.0002042266355625351,0.010338569671443356,0.3348632506205327,3.5068687723775698,0.7220551046553747,1.288110756149581,1.2325849728809466,1.4962982022515285,0.8021014063021725
0,92.58563525889454,84.17777777777778,8.375529532483004,3.037642626655204,3.0696633334899315,0.09949810690647708,0.03608603965139498,83.0,8.8956,0.10717590361445783,12.0,76.0,91.2,0.0,0.0,74.0,104.0,3.0,0.0,2.1705797590704328,11.479276299278615,0.1890868119627748,78.27807386919903,5.288576128708904,2.600610240715385,242.8361064448751,0.35555555555555557,0.36585365853658536,0.6666666666666666,0.0,47.413793103448285,47.70287443709134,47.11106283712262,51.21951219512195,0.48029556650246297,0.5197044334975368,1.5058027295981091,1.5663615074729789,0.5033356718527346,0.4966643281472655,8.14410500183978,8.089952909268876,0.502538785832364,0.4974612141676357,5.8563592846348165,5.826698312349841,1.7836367086761888,0.13842916926722593,1.8521784786365867,1.7829638940029737,1.163815055601379,0.10709426473305683,-1.0,2.1190096033985362e-05,0.0011672227919389956,0.3637150862873608,4.491418651692922,0.8161020110689098,1.7270500874599595,1.3310253313695048,1.6822543854064809,0.8542882594290605
0,92.61484794415551,84.02222222222223,5.110100910268926,2.589313703386566,2.6167253554058134,0.06081844511031517,0.0308170104872773,84.0,4.4478,0.05295,6.0,79.0,88.0,0.0,0.0,73.0,96.0,1.9565217391304348,0.0,1.850304243310229,6.949283960863187,0.266258258222103,40.395508147455246,3.7557520532033086,2.3133031855864963,104.39915001721893,0.5555555555555556,0.5,0.8,0.16666666666666666,53.246753246753244,53.04312548834572,53.44897489097731,50.0,0.6474576271186441,0.3525423728813559,1.4902785754878647,1.0996828295383152,0.5413759514936602,0.45862404850633964,5.113161829050926,4.706179307957457,0.5484112426488996,0.45158875735110043,3.7659895195434063,3.4174132033036573,1.5787214886586531,0.39861110184262305,1.5939865029533733,1.4817593749664053,0.719471040465173,0.4702540960805752,-0.7815454147367846,0.00023342309708064473,0.012200633191628504,0.47110296965474374,3.8691964294706995,0.8062064042387079,1.7773075857123115,1.4178718888332038,1.8198105395457658,0.8542882594290605
0,97.3695590443109,80.04166666666667,3.7866413194636626,1.4803679818552304,1.470021112826415,0.047308376713757365,0.018494966977889396,79.5,5.1891,0.06527169811320754,7.0,76.0,84.0,0.0,0.0,74.0,88.0,1.8461538461538463,0.0,1.0394618973669527,5.123452813548199,0.20288308201419408,16.730972595572688,4.928947204824294,1.930491297822748,101.01291369755025,0.7083333333333334,0.75,0.875,0.625,37.25490196078432,37.425568615032105,37.074976572310476,62.5,0.37864077669902907,0.6213592233009707,0.6510860492118233,0.834057656228299,0.4131256598324025,0.5868743401675973,3.2930917126806603,3.9249605991052827,0.4117150271968992,0.588284972803101,2.373643409571487,2.8373374736222288,1.3894383725309998,0.24192063899463534,1.3431007309698506,1.292941278207297,1.0,0.5945011612230973,-0.7073384601289261,5.885202066359496e-05,0.005038525955681291,0.3476678021948718,3.505994793599889,0.7885485226754726,1.6559752434709187,1.6583473100042971,1.5055051097880838,0.6981203125901446
0,93.28970753518595,83.76086956521739,6.912741159494132,3.359894178227774,3.3931005456855106,0.08252948178996368,0.04011293335024075,82.5,5.1891,0.06289818181818181,6.0,78.0,87.0,0.0,0.0,74.0,102.0,2.090909090909091,0.0,2.3992844051019993,9.471115045337598,0.25332649784283945,71.38923298814771,3.947474932608066,2.560602825849444,149.5479569012691,0.6086956521739131,0.6388888888888888,0.8695652173913043,0.36363636363636365,54.87804878048781,55.32195113467089,54.455600927504285,55.55555555555556,0.7854330708661416,0.2145669291338582,2.1293404868857655,1.1129404133359357,0.4451060062934394,0.5548939937065608,6.318774245735847,7.055147924278098,0.4656833356843936,0.5343166643156064,4.7149230575729195,5.0504330802952895,1.680459814751298,0.6147493054450432,1.562098290075653,1.403257721311264,0.5670703991957105,0.8424795852334643,-0.7583826729977312,0.00262411835431414,0.07144851586293914,0.4307643864818913,4.0720206531620775,0.6020594958776281,1.2012954118667818,1.3017968528669133,1.393285735017275,0.6003871691366318
0,90.2108406221516,86.63636363636364,5.085734307461292,2.312755328456152,2.3325421851285366,0.058702074902491304,0.026694972311665975,86.0,5.1891,0.06033837209302326,6.5,82.0,90.4,0.0,0.0,78.0,98.0,2.3157894736842106,0.0,1.6493563965080755,6.986896452478186,0.23606423935523824,36.20334414929431,4.2361350568442635,2.265718798685719,118.38974800353465,0.4318181818181818,0.4166666666666667,0.7333333333333333,0.0,55.00000000000001,55.244347270824655,54.75839244194641,44.44444444444444,0.5565217391304347,0.44347826086956527,1.234426799696735,1.1019463300386794,0.5626554830125701,0.4373445169874301,5.24089651845804,4.620576340724895,0.5623297176272416,0.43767028237275846,3.807282878969931,3.3588697083060826,1.8461269944748375,0.7445285381783693,1.9577886075887263,2.012091356027294,0.26403793945457465,-0.20829642175241503,-0.4270642485089559,4.77406415159123e-05,0.0269281150470644,0.5708053335639152,3.939116777965,0.970137279293931,1.848616999043724,1.3483982940072567,1.6186864979163909,0.868545939328661
0,91.73092814912913,85.06666666666666,4.951583768672586,2.76339711883103,2.7938319256448914,0.05820827314270282,0.032485075848327154,84.0,4.4478,0.05295,6.0,80.8,89.0,0.0,0.0,77.0,98.0,1.9565217391304348,0.0,1.9755375001189726,6.7884835945697075,0.2910130771619244,42.13159720170143,3.436271695253006,2.331578033430843,93.30829611883708,0.4444444444444444,0.425,0.5882352941176471,0.25,52.17391304347826,52.194273155730095,52.147254960654955,47.5,0.5000000000000001,0.5000000000000001,1.3976724838434158,1.3976724838434158,0.5567084423776706,0.4432915576223295,5.0650842836710925,4.519782153273558,0.5522764277654214,0.44772357223457854,3.7154116308146077,3.3452891567952077,1.704096815603889,0.4485502572579607,1.7304344744669278,1.6370123047567673,0.5917628819146579,0.3485636800949292,-0.708275813464607,0.00011854169528467032,0.009393481871306671,0.07153055185165735,3.9413100405337342,1.0166088173812569,2.1252075734709366,1.5030790311177817,1.920468531565741,0.7322470795106233
0,89.18707774294329,87.5813953488372,9.199463126518216,4.00594795867583,4.031236916895281,0.10503901073825898,0.04573971381387698,88.0,8.8956,0.10108636363636364,11.5,79.4,94.0,0.0,0.0,72.0,109.0,3.0714285714285716,23.4375,2.850514960506204,12.61168456982389,0.22602174552689502,112.93961357741492,4.4243530535915045,2.7598164074277878,223.19418054973275,0.3023255813953488,0.3,0.5833333333333334,0.16666666666666666,43.07692307692307,42.342052781305206,43.777464640530056,67.5,0.5519287833827894,0.4480712166172108,2.1299261409386143,1.9190953153161237,0.3385008202746582,0.6614991797253418,7.3375819178448705,10.257410944660938,0.3489882403042107,0.6510117596957892,5.402624073861593,7.378936444939687,1.8786849981705482,1.253329910134795,2.058097768657356,2.2581656675814017,-0.21941923965629329,-0.5799071552879624,-0.3403709212504723,0.0005558060706546136,0.09976406755361843,0.35416031818018645,4.344187428818824,0.7448892988841347,1.617783468162972,1.32940205675866,2.0598053953731665,0.7571532215863394
0,90.27569545648593,86.5111111111111,8.395405188722478,3.9971580813463867,4.0433041770408655,0.09704424184241242,0.04620398501427881,85.0,5.9304,0.06976941176470589,10.0,80.8,94.2,0.0,0.0,74.0,107.0,2.25,0.0,2.8590478019854886,11.532780286715301,0.24790620569428934,103.58701240738915,4.033783652972248,2.7222754175584134,186.0829623754911,0.4888888888888889,0.4473684210526316,0.5294117647058824,0.125,50.4,50.423155956210394,50.37772447794369,63.1578947368421,0.647226173541963,0.3527738264580369,2.3001516633514854,1.6981522105608076,0.4491549801027817,0.5508450198972183,7.729156980191787,8.559506616458778,0.46062348324746244,0.5393765167525375,5.702217344983706,6.170448705217237,1.4804089223550867,1.845422415236392,2.6312923167305726,1.848660813846462,0.6710871148179045,0.9417826360936195,-0.924093419708386,0.004233678378847839,0.35862044630133016,0.42474017735365965,4.299597886231824,0.7098391625509323,1.2149829945953259,1.4470003425136977,1.6288893285786155,0.7322470795106233
0,93.10654534718755,83.97777777777777,8.935345770612576,4.327501903786147,4.371491344501652,0.10640131243121619,0.05153151248223779,83.0,8.8956,0.10717590361445783,12.0,75.0,91.0,0.0,0.0,72.0,108.0,3.0,0.0,3.091111173595415,12.261078176692628,0.252107614766814,119.06747919987001,3.9665600776277476,2.782763269155299,194.5372128173672,0.4222222222222222,0.3513513513513513,0.5384615384615384,0.125,46.268656716417894,45.75639821098312,46.74626553127438,59.45945945945946,0.5000000000000001,0.5000000000000001,2.1887662448097567,2.1887662448097567,0.4381162201414495,0.5618837798585506,8.115650344318901,9.19077023669533,0.4418240108648622,0.5581759891351376,5.943672189213588,6.680604584098035,1.5107812449841609,1.2918648530484793,1.868062731652664,1.8252992318528958,0.32736362304274635,0.07705137938479734,-0.5331021466362034,0.0011500417424255042,0.13857416966550698,0.2804930471592315,4.358085318359588,0.7983585619678673,1.5552013651724352,1.4422025359006685,1.7646464296557232,0.8542882594290605
0,94.62845211449067,82.67391304347827,9.681722408346078,3.7564758898615485,3.7908715450021613,0.11710734440807771,0.045437257673844655,80.0,7.412999999999999,0.0926625,9.75,76.0,86.0,0.0,0.0,71.0,106.0,2.4210526315789473,0.0,2.6805509760781523,13.467375468895266,0.1990403388001804,113.41145225226903,5.024107203735797,2.761627021651294,270.64615243476584,0.32608695652173914,0.27027027027027023,0.3,0.1111111111111111,54.19847328244275,54.61809524869757,53.78540633144223,45.94594594594595,0.5527559055118111,0.447244094488189,1.9971570703468378,1.796461167760864,0.535317759776635,0.4646822402233651,9.8534608252984,9.180387343925732,0.5359849991273892,0.4640150008726108,7.1091253540546955,6.614634703133064,1.77782173597522,1.0355508341285542,1.9556208655801228,2.2449151562272163,-0.09655733761714735,-0.997120670085109,-0.22063728683049827,0.0008699886690260386,0.0991910768131787,0.34184142124209105,4.221946673862942,0.7638187599161134,1.479113903264052,1.3903424154595823,1.5307391993978272,0.960619470618611
0,98.51404456730621,79.16326530612245,4.496975552040088,2.207940216581962,2.227726634362216,0.05680634236915811,0.02789096947989588,78.0,2.9652,0.03801538461538461,6.0,76.0,83.0,0.0,0.0,71.0,89.0,1.75,0.0,1.5752406097874077,6.1994051419047596,0.2540954452451573,30.67939501701388,3.9355290254619724,2.1938169012438498,97.59175550625751,0.5918367346938775,0.5641025641025641,0.7727272727272727,0.1,46.42857142857142,46.38898477405969,46.47632167405393,56.41025641025641,0.46581196581196577,0.5341880341880341,1.0768353950744312,1.1531640100361062,0.4853447745586516,0.5146552254413482,4.318920384315044,4.44742069377557,0.4841565569035238,0.5158434430964759,3.1474313141145047,3.248795012113393,1.7125344971250203,0.5571447039404003,1.6950171503663958,1.56154121714063,1.0335013750995854,1.103259228241658,-0.7395713937182901,0.0004022150613392476,0.03209054286343154,0.20291652445567498,3.748547917661656,0.9644481400513342,1.8527118473270696,1.520452350535284,2.1058827250071315,0.687515491116148
0,96.20383296716251,81.19148936170212,6.809961686262459,3.2770612497758735,3.313272970610447,0.08387531427000408,0.040362127552270984,80.0,5.9304,0.07413,8.0,75.2,86.80000000000001,0.0,0.0,69.0,95.0,2.611111111111111,23.4375,2.342837785440744,9.40880459275961,0.24900482971488597,69.25107850096092,4.015986361168231,2.547396651357032,151.14252367767844,0.3829787234042553,0.3902439024390244,0.6875,0.1111111111111111,50.0,49.99006638818487,50.01044635710819,53.65853658536586,0.5910931174089068,0.40890688259109315,1.8012341448141727,1.498147003616282,0.4897951315205054,0.5102048684794945,6.584786237066447,6.720579891413731,0.49570925574672203,0.504290744253278,4.827206968439625,4.868810867209726,1.6529895532774463,0.7974401399131898,1.9315649417669007,1.7879925665831469,0.8880382354646175,0.41838075072039693,-0.6800415705176106,0.0007752343021131069,0.07065208753237757,0.35982633347711834,4.418757405182868,0.8709046285027401,1.8077068722638494,1.4241886766779612,1.9479987097035907,0.7090964491503368
0,88.1919715793008,88.79069767441861,6.6781739004400205,3.525417908358019,3.5354517787557347,0.07521253999971736,0.03970481143514793,90.0,7.412999999999999,0.08236666666666666,10.5,81.8,95.0,0.0,0.0,76.0,100.0,2.6875,0.0,2.4999419273162213,8.929651502616892,0.2799596296208869,70.1316897673254,3.5719435739866157,2.5528844129670074,127.58484521084932,0.32558139534883723,0.32499999999999996,0.5384615384615384,0.0,58.06451612903224,58.38238296316107,57.758113457589324,47.5,0.6130268199233718,0.3869731800766284,1.9754591932991792,1.5695268822630408,0.543862167982771,0.45613783201722885,6.585351105195217,6.030905966726083,0.5489756278037276,0.45102437219627256,4.861547500698008,4.406542942808944,1.656687101590078,0.9791199974236626,1.795673173577216,1.9664033756839565,-0.1249491653282444,-0.6517600843028921,-0.32562892949180977,0.0002037996842485867,0.054430493540437934,0.5303776778471949,3.9317377196674372,1.027497520597241,1.6442452295214185,1.67047475916603,1.7837142841133609,0.8833454251840624
0,82.42414667728255,94.625,5.39557035791208,3.343574012862162,3.387282717832439,0.05702055860409067,0.03533499617291584,95.0,5.9304,0.062425263157894734,7.0,90.8,100.0,0.0,0.0,83.0,103.0,2.2222222222222223,15.625,2.3951705795753164,7.147284149608832,0.33511618251618036,53.780813798298574,2.9840397216619556,2.4375974795381112,85.31111921775059,0.5,0.5,0.7777777777777778,0.0,50.000000000000014,50.006601588552236,49.993528892929376,47.22222222222222,0.44266055045871555,0.5573394495412844,1.5935726165476507,1.788118682037809,0.4948923534834824,0.5051076465165174,5.028013327830899,5.0796410001499614,0.4896188071539583,0.5103811928460417,3.7296374963966454,3.8078945042803594,1.5600134832626174,0.6552556512647971,1.6732284911399722,1.6476252052163263,0.4956480288927274,0.09700849427381897,-0.5390737353798103,3.441850866744708e-05,0.020758564151166895,0.34976989525923763,3.8362800457568484,1.1719981390481964,1.9257770142902466,1.6019497920704866,1.884003970755787,0.7982892142331044
0,84.78901294190335,91.85365853658537,8.705058803964956,4.491658936295141,4.548809368028811,0.09477095352165778,0.04890016367182708,93.0,7.412999999999999,0.07970967741935484,11.0,83.0,98.0,0.0,0.0,75.0,107.0,2.9285714285714284,23.4375,3.2164939504580654,11.948272592668697,0.2692015875526362,120.73626419052711,3.7146883459759428,2.788807843790493,177.5364358181207,0.2926829268292683,0.2894736842105263,0.5454545454545454,0.0,50.34013605442178,50.32757400709721,50.350951387117924,42.10526315789473,0.41140024783147444,0.5885997521685253,2.063106942552968,2.467740583964123,0.5331867471908218,0.46681325280917796,8.724585343904712,8.163505896711353,0.5249570855880843,0.47504291441191565,6.339353266678201,6.030446588578023,1.7187697321017574,1.1158434550658756,1.9571033755972334,2.1041177733216503,0.16169537587277638,-0.43763062225121896,-0.3682481874523002,0.0007621602469719957,0.10269080983030447,0.234476760125649,4.412310846028731,0.9603142393031229,1.826628223301224,1.445327958768064,2.011449270522836,0.9147040007884533
0,77.92411943614039,100.1842105263158,5.280536741544851,4.1881428510188785,4.245117315342536,0.05270827322792339,0.04180442036740672,100.5,5.1891,0.05163283582089552,6.5,96.0,103.6,0.0,0.0,88.0,114.0,1.6521739130434783,0.0,3.0017512406111386,6.929395104662205,0.43319094888838333,65.34613361048584,2.3084508172807223,2.522190006372527,63.984671170474,0.6052631578947368,0.6176470588235294,0.8571428571428571,0.2,48.800000000000004,48.78258594680052,48.820357896438544,50.0,0.4422187981510015,0.5577812018489984,1.9965247584518233,2.242270674512285,0.551905156508959,0.4480948434910411,5.147869759722274,4.6385292338685815,0.5345687788374832,0.4654312211625167,3.9042716461700104,3.64305717984437,1.482553157933617,1.598348087090666,1.8287846283444171,2.0616931609885154,0.009924836135510873,-0.4564579464840115,-0.3542817209059627,0.0028051317723621094,0.25557636716272997,0.40384719460303087,3.9053077763737467,1.323653519991488,1.9910200957140378,1.660623547827663,2.5399280349459694,1.242930200552428
0,79.94395044404533,97.58974358974359,7.0513826517176525,4.042536983523823,4.050622065567884,0.07225536611061179,0.04142378937399609,96.0,7.412999999999999,0.07721874999999999,11.5,91.0,104.80000000000001,0.0,0.0,85.0,110.0,3.0,0.0,2.8642223305869106,9.30189491088475,0.3079181562495722,83.70049526248603,3.24761622432386,2.6296981377176367,120.83593931817944,0.5641025641025641,0.5454545454545455,0.7777777777777778,0.25,41.08527131782945,40.97429471086379,41.18646862510327,51.515151515151516,0.36876006441223835,0.6312399355877616,1.7591459844465993,2.301585822275002,0.46431259924838925,0.535687400751611,6.338356508809033,6.80811910151268,0.4558645303814672,0.5441354696185327,4.651309376259357,5.081721312590799,1.5871394008301771,0.794236797944408,1.6917046624035295,1.7237004367125794,0.15896448412130404,-0.1567562580688433,-0.4597150693699167,1.5678847155652287e-05,0.02585605881825738,0.30490578123088063,4.252974975106084,1.1605371431624487,1.9182636722068866,1.5888523529235825,1.9012423843934616,0.8131388029018844
0,82.92207007273413,94.02439024390245,7.421212181571312,3.9560080889704965,3.9948685033395477,0.07892858610750293,0.04207427539501695,93.0,7.412999999999999,0.07970967741935484,9.0,88.0,101.0,0.0,0.0,81.0,111.0,2.2777777777777777,0.0,2.824798608659948,10.143268577529504,0.27848997461407615,90.01508344144102,3.590793533540203,2.661285398362479,145.6895328686179,0.4146341463414634,0.4358974358974359,0.7058823529411765,0.0,45.454545454545446,45.315374415962125,45.60484074992905,56.41025641025641,0.46645367412140587,0.5335463258785944,1.9348358440936904,2.0693117894728386,0.3884429789036897,0.6115570210963104,6.321811804157055,7.932250181929334,0.3940878905572701,0.60591210944273,4.674874021338394,5.796664740640484,1.6726856696866343,0.5297019071626483,1.7081794765685736,1.8924399360175022,0.020056234782217075,-0.835826119770827,-0.15214310736406275,6.685789783059271e-05,0.015663103643908424,0.379458384802311,4.405855662943599,1.0303229585823266,1.6286107247473165,1.4602115982563593,2.250289749706719,1.1760480010137258
0,81.69508865416294,95.65,4.912307933219297,3.343574012862162,3.3856887023475415,0.05135711378169677,0.03495634096039897,94.5,5.1891,0.05491111111111111,6.5,91.8,100.2,0.0,0.0,87.0,108.0,2.3529411764705883,0.0,2.394043440416629,6.418491336687795,0.3729916135794075,48.27417478669209,2.6810254268280125,2.390684968515778,68.83255390214119,0.7,0.6774193548387096,0.9523809523809523,0.375,48.000000000000014,47.84519478463148,48.14603428686819,45.16129032258064,0.3944954128440368,0.6055045871559633,1.504379571363837,1.8637822325921864,0.5299205495261445,0.4700794504738555,4.672381975727663,4.400667871134058,0.5133672038468173,0.48663279615318267,3.470901267815146,3.3793166411685864,1.2231359905492927,0.6709040726368052,0.5522319179124875,0.8876839542308901,0.9993352548427772,-0.4865099137883049,0.0,0.0013790897395580444,0.07045094418489366,0.15081913859785878,3.536280045756849,1.1593567683726416,1.6090519327492132,1.7579640079988605,1.936747907385106,0.9313374166052885
0,83.65324459441482,93.5,6.131047511620147,3.879598181678362,3.915780041490244,0.065572700659039,0.041493028681052,93.0,6.6716999999999995,0.07173870967741935,8.5,88.0,98.2,0.0,0.0,84.0,108.0,2.1052631578947367,0.0,2.7688746209726913,8.168518614551555,0.3389690042500687,71.05529819992933,2.950122245579324,2.5585665763661036,96.39251391286936,0.475,0.45714285714285713,0.6875,0.3333333333333333,55.75221238938053,56.058178429266135,55.44907372398799,42.857142857142854,0.4855195911413968,0.5144804088586031,1.9364916731037083,1.9934101962532238,0.6364263277527034,0.3635736722472963,6.516544596059977,4.925377435673007,0.6207704334276288,0.3792295665723714,4.807044490767611,3.757194904071595,1.5027932851615644,1.2362750361489443,1.7001632461862264,1.6901380583358678,0.03098005872947418,0.14689359434833804,-0.5081091889403409,0.00012925009798073978,0.07375708143877849,0.46400039515117264,4.0841837197791895,1.1400782318068858,1.8248969622555753,1.6583152709566962,1.7328132250441033,1.0643856189774725
0,84.68971625211668,92.07142857142857,9.402627700037115,6.289751633391902,6.364823297606627,0.10212318681188488,0.06831382689486938,92.0,10.3782,0.11280652173913043,13.75,85.0,101.80000000000001,0.0,2.380952380952381,73.0,109.0,3.8181818181818183,15.625,4.500609714791769,12.554005288372624,0.35849990591928316,177.5021154315447,2.789401010959126,2.956173643210775,140.07262017189123,0.3333333333333333,0.3513513513513513,0.6153846153846154,0.0,47.61904761904761,47.26247511578226,47.96123066160965,59.45945945945946,0.6621454993834771,0.3378545006165228,3.664014192112252,2.6172504656604803,0.47482648530101595,0.5251735146989841,8.65067059395765,9.09774406407018,0.4961775909408621,0.5038224090591378,6.643007666906745,6.6939878643199,1.542700757221399,1.6956963841135053,1.819602430074343,1.9227121105126406,-0.45479708536647223,-0.3752205883432973,-0.43919331231445513,0.0004357715636596217,0.15750766764332508,0.2230633374961588,4.6124391489177246,0.993771437521617,1.7564514492153287,1.4968020597226641,2.342444662609501,0.8987195704631268
0,99.62917029351618,78.28571428571429,3.952847075210474,2.7118566825454966,2.7398264427095036,0.05049257212860094,0.03464050506901181,78.0,4.4478,0.05702307692307692,6.0,74.0,82.0,0.0,0.0,72.0,87.0,1.96,0.0,1.9373498569141059,5.2773897144877955,0.3671038073226961,32.12011518341446,2.724025139627516,2.213747203960452,57.502969015505734,0.5102040816326531,0.47368421052631576,0.6666666666666666,0.15384615384615385,51.546391752577335,51.51153701167963,51.57914445877382,47.368421052631575,0.4532577903682721,0.5467422096317279,1.3046561461068844,1.4328961893178798,0.4860581144277421,0.5139418855722581,3.6792836047615496,3.7833469777849373,0.4821609095860185,0.5178390904139812,2.760367321919459,2.8606735084308483,1.40225552759037,1.5962483243575294,1.6622945955345372,1.7370267986729835,-0.341922626525724,-0.14899842627959003,-0.45318259571641206,0.00033728713075531816,0.13365121780195324,0.1734208997509965,3.700619028976008,1.1519377224361085,2.0081409743563867,1.6416292379269288,2.813512738439846,0.9166873214881973
0,86.56446626212738,90.26190476190476,11.797187601618516,3.835012004305949,3.859893844110856,0.13069951972249477,0.042487603318609825,88.5,11.119499999999999,0.12564406779661016,18.5,81.0,102.80000000000001,0.0,0.0,70.0,112.0,3.8181818181818183,23.4375,2.7293571118309967,16.342280194367596,0.16701201297305351,140.12734322137246,5.987593240740979,2.853492997934871,391.4037057203624,0.35714285714285715,0.3235294117647059,0.5454545454545454,0.14285714285714285,43.08943089430895,41.726445116158146,44.27212558033145,61.76470588235294,0.46932006633499174,0.5306799336650082,1.8808242873804029,2.0,0.32104925743945745,0.6789507425605428,9.259733491667259,13.465788414144756,0.32511903239365947,0.6748809676063404,6.681323384506408,9.626200122959089,1.6724745757514143,0.3128071242690744,1.631056599832296,1.6014369290290587,1.0,0.5685401969415134,-0.5946898855722947,0.0003501326570475513,0.014085896810724252,0.2347029109201042,4.576492125005179,0.6790131421540365,1.8413369266954627,1.3786190921910506,1.7514672130615063,0.7703310603969659
0,80.63952679679356,97.48717948717949,8.943894697595304,3.7626978003610794,3.8038686603517546,0.09174431699269249,0.03859684750501896,101.0,11.8608,0.11743366336633662,13.0,89.0,105.0,0.0,0.0,76.0,113.0,3.0,15.625,2.6897413244777137,11.857858969715464,0.2268319543475103,100.19975713935767,4.408549945604151,2.707836778866624,209.10385406368326,0.46153846153846156,0.40625,0.6923076923076923,0.2857142857142857,54.71698113207546,55.57684033102258,53.963700112548786,46.875,0.5799256505576208,0.4200743494423792,2.0533426933213597,1.7475852065218604,0.5680513196231106,0.4319486803768891,8.937170994221301,7.793317263252591,0.5686351046287984,0.4313648953712016,6.484182353857993,5.647559119644739,1.5933802803911392,0.4390667795676375,1.7926471963509192,1.6998250445801641,1.0222277920516625,0.24840504324125012,-0.7114078224322957,0.0012009221294403594,0.041008431699706874,0.37721407283982256,4.29168715470421,0.755096882632779,1.4024985673359813,1.5175704309408675,1.4071546325991715,0.6776156690849037
0,81.45771673985536,95.925,8.95397777240473,4.405707254261954,4.46262027928492,0.09334352642590285,0.04592866566861563,94.0,9.636899999999999,0.10252021276595744,14.5,88.0,106.0,0.0,0.0,82.0,111.0,3.3333333333333335,0.0,3.1555490613429718,12.234908355036431,0.2579135838025307,121.29014916319782,3.8772676694905734,2.7907956401128593,189.7520584166514,0.275,0.27027027027027023,0.4,0.0,48.93617021276594,48.8084336531342,49.05677039083991,51.35135135135135,0.5244385733157201,0.47556142668428014,2.285538057116161,2.176428750330035,0.46502588143373386,0.5349741185662662,8.343327340522551,8.948847486968878,0.4687325439777297,0.5312674560222705,6.116976186059474,6.512246672627365,1.7142250268662418,1.5428489514457668,2.0652122141182376,2.209667143563887,-0.10540207720998751,-0.4778707662709252,-0.4063713078909739,0.0013906897661867047,0.19136250530091034,0.3172242673464556,4.446439344671016,0.9092156710118119,1.6120102581167723,1.4075015738329404,1.9799868249197048,0.7982892142331044
0,88.26829961778347,88.46511627906976,5.30654957939132,2.355338414669758,2.3740026330529123,0.059984656128766245,0.026624487862986223,89.0,5.9304,0.06663370786516853,7.0,83.4,93.0,0.0,0.0,79.0,99.0,1.9545454545454546,0.0,1.6786733603864332,7.335517307563948,0.228841851229154,38.68537555177033,4.369830057870996,2.2945169272409687,128.21985608250347,0.46511627906976744,0.43243243243243246,0.625,0.0,55.69620253164557,55.60422926669415,55.77424425931057,37.83783783783784,0.4463519313304721,0.5536480686695279,1.1261850127429458,1.254261030131813,0.5538022057480187,0.44619779425198125,5.458937055691245,4.899981672575037,0.5484128123103147,0.45158718768968525,3.941337746306819,3.576520035123428,1.5367311911774708,0.8032024844930445,1.6980573740607041,1.6541175005057824,0.5743035650679751,0.2977576990801003,-0.5547058486536619,0.00013949362385516794,0.03845968458185019,0.5452074337406456,3.985005023282631,0.9287698704412657,2.0097726060647965,1.5450050965878959,1.8620577610706868,0.630961017988616
0,87.79772972068555,88.67441860465117,5.943066910004336,2.8284271247461903,2.852551479277454,0.06702121089173523,0.03189676537217052,87.0,7.412999999999999,0.08520689655172413,10.5,83.4,95.6,0.0,0.0,77.0,98.0,2.388888888888889,15.625,2.0170584946808052,8.171648673562437,0.24683617410113973,51.781908410595875,4.051270052461013,2.421148162181115,132.42222220174503,0.4186046511627907,0.38888888888888884,0.6428571428571429,0.3333333333333333,44.565217391304344,44.70954376055468,44.431263406110624,63.888888888888886,0.47321428571428553,0.5267857142857142,1.3924885601842127,1.4691958975459514,0.36762138326649396,0.632378616733506,4.954616778424918,6.4982778197831,0.3737262595379339,0.626273740462066,3.639179290121168,4.7109527278699606,1.8107132343310772,0.4298763638380221,1.841849520373442,1.7233019330168724,1.0400657331716912,0.7651504915715477,-0.7757713550430012,0.00042267755617095195,0.02299784686699168,0.5266664287055289,4.041944116671158,0.8887926015785932,1.8303229858957142,1.3126210248146883,1.7301462667507845,0.630961017988616
0,80.92475018219677,96.82051282051282,6.954255777170191,4.065257161542635,4.119826813468373,0.07182626464767941,0.041987560725678705,97.0,7.412999999999999,0.07642268041237113,10.0,89.6,104.0,0.0,0.0,86.0,111.0,2.6,0.0,2.913157477117652,9.246659463695705,0.3150497202319724,84.62500325695996,3.174102167948906,2.634468808369671,117.39936740000724,0.46153846153846156,0.4411764705882353,0.7333333333333333,0.125,50.000000000000014,50.00998328710564,49.99086907236306,47.05882352941176,0.43312101910828044,0.5668789808917197,1.9172051730776432,2.1933560611106464,0.45703057617424364,0.5429694238257564,6.251115046150297,6.813535933518419,0.45487168498638264,0.5451283150136174,4.623424866691483,5.061377417667918,1.6547331089093211,2.31129065363466,2.0054603697997737,2.3168200354913115,-1.0897043761561278,-0.8020327950091923,-0.36528753309242873,0.0018036578885922202,0.3367305285959399,0.4366763263556548,4.194906705708894,1.1077740387867165,1.9282441511439128,1.5337678245953237,1.8230239314993617,0.9486619367188652
0,87.60627747940359,89.11627906976744,6.507172973783774,3.394673699166022,3.4354847064728475,0.07301890341145675,0.038092632845547744,87.0,5.9304,0.0681655172413793,12.0,83.0,96.0,0.0,0.0,81.0,103.0,2.263157894736842,0.0,2.429254532609626,8.915919026044252,0.27246260598750854,68.04387060065288,3.670228420430826,2.539759119968371,130.89383761459015,0.3953488372093023,0.3142857142857143,0.5454545454545454,0.125,50.961538461538446,51.03409571812565,50.890802804684064,42.857142857142854,0.4896694214876033,0.5103305785123968,1.7000717344979959,1.7355676656216028,0.5849519662929167,0.4150480337070834,6.81908679320952,5.744011436762069,0.5783661885721022,0.42163381142789796,4.969415891015941,4.242986124629956,1.7519097706874966,1.3619270334839184,2.076025654805175,2.0533167826178986,0.3600143203951838,0.2637947584241678,-0.5166740740355122,0.0008781332739757002,0.14095156483576368,0.3920206458387754,3.8103590929494464,0.9855783836079559,1.4587539095273618,1.433904405259391,1.7892053375265846,0.8833454251840624
0,90.75517799833554,85.88636363636364,2.846588403530101,2.3227890212434925,2.3498073717616474,0.03314365963358678,0.02704491054107268,86.0,2.9652,0.03447906976744186,4.0,83.0,88.0,0.0,0.0,81.0,92.0,1.76,0.0,1.6615647270547995,3.7043268824808377,0.4485470045618726,19.336436449407586,2.2294207515147058,1.9933465500832588,33.03401288878622,0.5909090909090909,0.5789473684210527,0.8181818181818182,0.16666666666666666,51.25000000000001,51.23508095671638,51.26416392489569,52.63157894736842,0.521551724137931,0.47844827586206884,1.200198396297958,1.14953406710222,0.47695204508898964,0.5230479549110103,2.558271666777865,2.679045302198493,0.48442477599581274,0.5155752240041874,1.9981529110048841,2.061396650654646,1.331439720706883,0.9559751349412862,1.4860202145471133,1.6333902656139956,-0.04803342021209289,-0.6307184163386257,-0.3458432173804045,0.00017131403345196322,0.05304377067140335,0.18207448655454916,3.3449870177359937,1.3659535645500867,2.439530639203245,1.731123369364161,3.2121396147386574,1.2407799133266584
0,91.74335203210549,85.02222222222223,5.310747631364195,3.1908961408698624,3.219588565102881,0.0624630536882877,0.03753014279643069,84.0,4.4478,0.05295,7.0,81.0,90.2,0.0,0.0,73.0,95.0,2.0454545454545454,0.0,2.276592907014913,7.162269001621317,0.31785917374781125,51.225461460562705,3.1460473146305907,2.4164559893605153,90.13134863685066,0.4222222222222222,0.4,0.6428571428571429,0.1,45.28301886792452,45.21201505519161,45.36450635149962,60.0,0.4508928571428572,0.5491071428571427,1.5325916642414332,1.691290961448996,0.4319914650960645,0.5680085349039355,4.707477051282658,5.397940075920883,0.4337339460150743,0.5662660539849257,3.5006554670272245,3.9998888846761615,1.6638870949320548,1.5188315220299013,2.0418148647267103,2.238550927650832,0.12646771582602945,-0.5030444293684235,-0.37046880442592706,0.0025174607799096746,0.24160993938698097,0.3928046797136924,4.081098797321585,1.058363618108924,1.7250397874328682,1.5234293279761826,1.998685449447132,0.9763294393474977
0,98.47780059983192,79.20408163265306,4.734534436090904,2.6536138880151094,2.681695240272863,0.05977639458089521,0.0335034992302861,79.0,4.4478,0.05630126582278481,7.0,76.0,83.0,0.0,0.0,70.0,89.0,2.130434782608696,15.625,1.896244889472629,6.4952246506499955,0.29194446558255166,38.69354074243294,3.425308981297455,2.2946085826280287,88.99260532566421,0.4897959183673469,0.46511627906976744,0.75,0.08333333333333333,50.0,50.00412744792063,49.99545961092111,46.51162790697674,0.44970414201183434,0.5502958579881658,1.2716215146794836,1.4066710362609016,0.510908737496848,0.48909126250315205,4.642648902274135,4.542439260201958,0.5061018704980249,0.493898129501975,3.4037633662156197,3.362475117891538,1.5515720624960423,1.0048650784285815,1.7086830726312927,1.8097666928631755,0.0871653762168858,-0.30394321475471386,-0.3994057785449581,0.00019585072028722084,0.057320603999934036,0.0944711208954927,3.9129939668651232,1.0404262344850232,2.085078868551849,1.5322386593865267,2.4679087893334213,0.9166873214881973
0,92.35689421951575,84.6,6.770255802875076,3.151478729393264,3.1878303211507677,0.08002666433658483,0.037251521624033855,83.0,5.9304,0.07145060240963855,8.0,78.8,88.0,0.0,0.0,77.0,104.0,1.9565217391304348,0.0,2.2541364373577966,9.290516089957487,0.24262768779813948,65.79151873448313,4.121541152516676,2.52514002174874,153.1649775715124,0.4,0.4054054054054054,0.6,0.0,49.5049504950495,49.436353990627055,49.57021299949061,64.86486486486487,0.6086956521739131,0.3913043478260869,1.7586993079585702,1.4100964835865861,0.2932705114034739,0.7067294885965261,5.031228456153893,7.810277167920886,0.31080755785206404,0.6891924421479357,3.768705549245433,5.611987238615638,1.7788083256847147,0.4129739363249221,1.8987472917180392,1.6994925229957019,0.9892750294308064,0.7400460113574665,-0.982487516029502,4.915651359262851e-05,0.011285887408618,0.5893462662050597,3.7554316410537276,0.832588235227352,1.3234185700602599,1.551223510366469,1.5590982123404822,1.098370619265935
1,105.70537750493165,73.73076923076923,6.097622116457622,3.3606722016672235,3.3920321863067833,0.08270118676468345,0.04558032198401034,72.0,4.4478,0.061775,6.25,70.0,77.80000000000001,0.0,0.0,64.0,92.0,2.0,0.0,2.3985289609405567,8.34909881247025,0.28727998252435377,62.91213741285321,3.4809247453056575,2.50570455036598,116.2503386293191,0.4230769230769231,0.35714285714285715,0.6666666666666666,0.125,47.22222222222221,47.07234136651546,47.39564848812421,66.66666666666666,0.7135416666666666,0.2864583333333333,2.027313493271329,1.284523257866513,0.4499314099437269,0.5500685900562727,5.600318892990924,6.192243476899231,0.47005127697247606,0.5299487230275238,4.2115063637130525,4.471793783103212,1.6166321459778537,0.6843385473149475,1.1570335711990465,1.4706192922778252,1.0,1.1070017477076632,-0.04176814632296356,0.004099579309933591,0.14489209900814604,0.4047607508034403,4.086667661200831,0.6982110688114747,1.3725601643404322,1.3865539405593663,1.9442508215573784,0.7673668851343778
1,99.77883578875095,78.3265306122449,6.935379571149539,3.178705187126775,3.212274221444811,0.08854444997038234,0.040582739491717555,77.0,4.4478,0.057763636363636364,6.0,73.0,81.0,0.0,0.0,70.0,101.0,1.6333333333333333,0.0,2.271420885014363,9.54207507875046,0.2380426549014124,68.0910947507749,4.200927772437084,2.5400604266691182,160.34227282001032,0.46938775510204084,0.41025641025641024,0.625,0.1,50.485436893203875,50.53565957004042,50.440610470453095,56.41025641025641,0.622680412371134,0.3773195876288659,1.792419023958072,1.3952807999246235,0.4251637110142324,0.5748362889857678,6.2218698738718095,7.234606560215767,0.4357561022384088,0.5642438977615912,4.578451194718603,5.209910776191629,1.7340496468646216,0.7508752860136783,1.8158340465424767,1.7163226155994074,0.4993576540154727,0.49718394764975304,-0.6325272422686403,0.00012286389709954747,0.024594845558018535,0.47347994016055495,3.973819476892596,0.7334017684689805,1.4263874940315324,1.446752161402243,1.467659671275576,0.687515491116148
1,101.72285546651499,76.81632653061224,9.968018587353413,4.782781617427248,4.828806880226711,0.12976432273653488,0.062262566220492865,71.0,4.4478,0.06264507042253521,16.0,69.0,88.60000000000002,0.0,0.0,66.0,97.0,2.7222222222222223,0.0,3.4144820900485637,13.791475165262147,0.2475791783788969,147.93993837799675,4.03911187745196,2.8770555434293326,222.82124459037632,0.6326530612244898,0.5833333333333334,0.8095238095238095,0.3333333333333333,53.787878787878796,53.96383292330269,53.57978521609048,55.55555555555556,0.6183970856102005,0.38160291438979954,2.687639160177413,2.1112666360530206,0.51265258609841,0.4873474139015899,9.874663339265283,9.627866387222705,0.5187708308632704,0.4812291691367296,7.236448725692352,6.969693607997536,1.4487918821832597,0.8801831459706726,1.7383753072801085,1.5106955405815015,0.9280507619100185,0.8190490008470785,-0.7586731724424467,0.0008759369631807407,0.07835155766596226,0.36594151101152717,4.066781855707775,0.6682907871874694,1.030532828465209,1.3309083722717567,1.7538372713680868,0.5729295759301233
1,96.58872746717131,80.77083333333333,4.705088161759466,2.530663019674673,2.557931923679648,0.05825231667899262,0.03133139668413317,81.0,4.4478,0.05491111111111111,7.0,77.0,84.0,0.0,0.0,71.0,90.0,1.92,0.0,1.8087310090474291,6.4770640669148465,0.27925167797652545,36.80459556525176,3.580999073115909,2.272872159722847,92.7774416805377,0.5625,0.5641025641025641,0.8181818181818182,0.2727272727272727,50.54945054945056,50.54458196815412,50.55335056407989,53.84615384615385,0.5780730897009968,0.42192691029900337,1.375247013385627,1.1749190536410137,0.43622686371657926,0.5637731362834209,4.277937115035976,4.863292399878623,0.44648873444463993,0.55351126555536,3.1774242955598813,3.5377992982450173,1.6190037876900014,0.22069951103682817,1.4312620466290045,1.5416118021474186,1.0638334993511025,-0.007117956037431483,0.0,9.133486772766159e-05,0.006163638548355306,0.19609610694082003,3.8652679706381496,0.987993435776933,1.7607928283748733,1.507506787382761,2.3449725773041568,0.8144736980218353
1,87.17827746721976,89.85714285714286,12.286362514298226,6.326483244576123,6.391305069217466,0.1367321742449723,0.07040601385060868,89.0,11.119499999999999,0.124938202247191,14.0,79.4,100.60000000000001,0.0,2.380952380952381,70.0,116.0,3.0,23.4375,4.519335155075627,16.809513856669412,0.2688557916434042,238.6599669364761,3.7194660895620433,3.0847496860833976,250.08966708762063,0.3333333333333333,0.35,0.5714285714285714,0.0,54.64480874316939,55.192751040923724,54.118103573502374,47.5,0.643510054844607,0.3564899451553931,3.6331804249169894,2.704163456597992,0.47948061872536685,0.520519381274633,11.639670385390957,12.127564859320014,0.49058243930017004,0.5094175606998299,8.622120582563992,8.786077891101742,1.7070103359896942,1.3015751089056815,2.0496819718321153,1.861164738744399,0.6211579269917387,0.7965477215440595,-0.6448377675616546,0.0008489644211533237,0.13086084332316322,0.2553458677732605,4.6124391489177246,0.8974257340413693,1.6044941726467898,1.4322879759203557,1.6565464045711251,0.7703310603969659
1,92.20479000566237,84.44444444444444,6.02100699655176,2.3884190282581184,2.415047086764488,0.0713013986433761,0.02828390954516193,85.0,5.9304,0.06976941176470589,7.0,78.8,90.0,0.0,0.0,71.0,96.0,2.3684210526315788,0.0,1.7076961719359858,8.146047304107746,0.20963494418634895,43.70261308692788,4.770197086565295,2.347477515245831,155.43300446831137,0.4666666666666667,0.45454545454545453,0.8,0.18181818181818182,48.148148148148145,48.370358080638894,47.9041443883181,57.57575757575758,0.5458167330677292,0.4541832669322709,1.262150250886935,1.1513389576266568,0.4138924831893543,0.5861075168106459,5.240716866612297,6.236423125860406,0.4194504092665592,0.5805495907334407,3.811701492234706,4.484336896360225,1.6476346773182509,0.8467764666312836,1.8235020150277994,1.8184147804821758,0.6180940168409021,0.24703914860721898,-0.5060077656218555,0.00036374708197809357,0.0518315805084086,0.5208052816057758,3.8946463634201813,0.8256228428092124,1.4919596839495655,1.4213638550987069,1.4506501504074218,0.8542882594290605
1,88.00690867014941,88.44186046511628,10.069525750362294,5.820734694259169,5.869516122492136,0.11385474816344429,0.06581424976417151,87.0,10.3782,0.11928965517241379,15.5,80.0,96.6,0.0,2.3255813953488373,73.0,115.0,3.909090909090909,0.0,4.15037465249796,13.119713691247304,0.316346434851459,171.06514599657478,3.1610914169763022,2.9401316423357144,165.89045737035332,0.20930232558139536,0.21951219512195122,0.2222222222222222,0.0,56.44171779141105,55.42157901671213,57.55565460358352,56.09756097560976,0.8053408292340124,0.1946591707659873,3.7383966825495603,1.837946892727808,0.5296126245641687,0.4703873754358315,9.547804593850792,8.998128404170707,0.5548653125939735,0.44513468740602635,7.250385586934526,6.4940112241368775,1.551553880534787,1.25237233553844,1.903555774861061,1.7653249535849738,0.619020879196821,0.5171989185481518,-0.6103751794522487,0.0009302551752216429,0.13291527929680974,0.34447981765507274,4.501277835845881,0.7645054665524987,1.6202848205884024,1.4995321889762374,2.2136797940492703,0.7571532215863394
1,89.87741181730809,86.29545454545455,11.512540271786838,5.689647882185313,5.7475499137523105,0.13340842032094308,0.06593218509774922,82.0,10.3782,0.12656341463414633,16.0,76.0,97.19999999999999,0.0,0.0,73.0,112.0,3.142857142857143,0.0,4.064131519222415,15.678278489356273,0.2592205210528367,200.17784097019467,3.857719272912698,3.008386110792421,241.92958837792912,0.25,0.2619047619047619,0.36363636363636365,0.0,46.3917525773196,46.712037793926186,46.08312023235086,54.761904761904766,0.48275862068965525,0.5172413793103451,2.82842712474619,2.9277002188455996,0.48414819223018074,0.5158518077698192,10.909065057560657,11.260582398780306,0.4840604294466784,0.5159395705533216,7.968930305570845,8.227154566773054,1.6486626514692742,1.5218231757658094,2.0158217068159234,2.001981695267166,0.19448229517730198,0.16088557616475807,-0.5090943624523218,0.0011751513206023384,0.1759770134511829,0.35297374746605437,4.527169118440619,0.882666217634786,1.5811147829946683,1.4608745221743764,1.9198829171536709,0.868545939328661
1,83.58435740231889,93.4390243902439,8.76370007613167,4.153311931459037,4.2059176869909844,0.09379057768765295,0.04444943596706357,93.0,7.412999999999999,0.07970967741935484,10.0,88.0,100.0,0.0,0.0,75.0,109.0,2.9285714285714284,23.4375,2.9740329175837634,12.166526167084792,0.2444438845353972,113.6742868635318,4.090918461309237,2.7626323482978816,199.08906602771637,0.3902439024390244,0.3611111111111111,0.6153846153846154,0.0,50.73529411764706,50.75673321919428,50.709319519192455,47.22222222222222,0.5231884057971014,0.4768115942028986,2.151326364874732,2.053764523490636,0.44674321620661883,0.5532567837933811,8.131966441465938,9.049612188885817,0.4510540703993985,0.5489459296006014,5.947986353940857,6.561761557965188,1.5887673523507615,0.6898529170853669,1.7507780090970515,1.796934696037877,0.5678475787363446,-0.12363071931931113,-0.43309198845481767,0.0002674995963047486,0.03861936268362779,0.24254609851578657,4.44267944353694,0.9543182920401757,1.7018969319930117,1.474061258704135,2.081811117979677,1.0453760009010895
1,90.71956412430173,85.79545454545455,13.79851617478462,8.189613387813887,8.286000682414292,0.1608303872027876,0.09545509644074464,84.0,11.8608,0.1412,15.25,75.0,93.4,0.0,2.272727272727273,70.0,125.0,3.142857142857143,0.0,5.859087271451506,18.850434223961358,0.31081975098503795,346.9774079186929,3.217298761841352,3.2472713082810163,242.5899147556909,0.4090909090909091,0.4,0.6875,0.125,48.98989898989898,48.63241797021023,49.435045092146815,60.0,0.7971567267683772,0.20284327323162268,5.23154352166238,2.638993314558738,0.3995444122911671,0.600455587708833,11.915270041040534,14.60702605874911,0.4345773348308743,0.5654226651691258,9.201703857709335,10.495939595749903,1.7299195264825813,2.174032151713422,2.243715989560496,2.031486674849677,0.20938916427489573,1.0180516272209372,-0.5976201361803939,0.0016836130139729628,0.33805064988310685,0.447573296424602,4.58751052826002,0.7693527348142385,1.383506703534285,1.3553105477273335,1.8049275691723268,0.868545939328661
1,80.56301246260065,96.175,8.983995741716459,4.758258677397189,4.7128045064260276,0.09341300485278356,0.04947500574366716,95.0,8.8956,0.0936378947368421,12.5,88.8,103.2,0.0,0.0,79.0,118.0,3.3333333333333335,0.0,3.332456024900364,11.564989747260954,0.28815036569224983,121.07641463236862,3.4704103102475994,2.790029661919001,160.5410386272088,0.275,0.2894736842105263,0.45454545454545453,0.0,37.25490196078431,37.4507679879197,36.96427886455309,60.526315789473685,0.3703284258210645,0.6296715741789354,2.0742785683093214,2.704771612111494,0.22847598656943002,0.77152401343057,5.527968157710635,10.158275242460617,0.2398134753432999,0.7601865246566999,4.1749888342132175,7.433247788661175,1.5608758035942312,1.8528304612739328,1.78376184938732,2.2980710774019335,-1.2052870565667657,-1.6928909099467804,-0.22241970392639437,0.002036081542853566,0.26087595357074517,0.15592387297624288,4.515311532225103,1.0183816811413522,2.03928953984945,1.7270670834494082,1.5951517315351196,0.9313374166052885
1,87.32976455624657,89.73809523809524,18.132385154891857,6.540679460490175,6.61530007799731,0.2020589483962478,0.07288631927317255,91.0,23.7216,0.2606769230769231,23.75,72.2,104.80000000000003,0.0,2.380952380952381,67.0,128.0,3.230769230769231,0.0,4.677723544735794,25.44040141959721,0.18386987955042472,373.85946800052545,5.438628678308122,3.2796784936025483,553.4435869931682,0.5,0.5,0.8,0.0,54.54545454545454,55.07431826368738,53.99032693352701,70.0,0.8164196123147094,0.18358038768529078,4.230839160261236,2.0062402647738877,0.28865311626818757,0.7113468837318123,13.668223916541558,21.45678632408696,0.3059459059636689,0.6940540940363311,10.117320421749987,15.238416573868907,1.7332969847688193,1.730052229962073,2.1512689861526044,1.8045674281008157,0.36608479241772685,1.0899786195323724,-0.7003994746790906,0.0016597802692597224,0.21328602463152083,0.30508970033071536,4.454601280272709,0.43584733446169455,0.9651312301853359,1.149359869729598,1.3348503098762636,0.38516553019848293
1,92.05773675994662,84.6,15.887959992625635,5.571844806296614,5.588042201417264,0.18780094553931012,0.06586104971981814,82.0,10.3782,0.12656341463414633,16.0,72.0,89.2,0.0,2.2222222222222223,66.0,124.0,2.6470588235294117,0.0,3.9513425341787496,21.741660207617755,0.1817406074994353,269.8902876438412,5.502347624776742,3.1381573661426843,478.5206896083543,0.37777777777777777,0.36585365853658536,0.6,0.0,61.94029850746268,60.220586632120266,63.60380811682725,53.65853658536586,0.8894582723279648,0.11054172767203511,3.7587108131305054,1.3250713012847164,0.4377464212629048,0.5622535787370952,14.384805900121245,16.30267302620483,0.4524314543094291,0.5475685456905708,10.513100107982115,11.565746014694316,1.4363786760104946,1.1045374677712791,1.6409233744422254,1.3697178993855865,0.35495755160928155,0.653559075437566,-0.7455375964781653,0.0017435286250607732,0.09270246654359297,0.2961144443742789,4.385754484978179,0.4316073085274458,1.1438581501354492,1.3058948210148398,1.515331961922325,0.48816471967374886
1,87.3262308595386,88.97674418604652,9.109096374851593,5.769377287516763,5.810599470114129,0.10237614848892275,0.0648414070473656,88.0,5.9304,0.06739090909090908,8.0,81.4,92.6,0.0,2.3255813953488373,73.0,112.0,1.9545454545454546,15.625,4.108714288076659,12.079969694833958,0.34012620824982415,155.92712083104882,2.940085108835529,2.899891769748982,142.06455605986315,0.4883720930232558,0.48484848484848486,0.8125,0.2222222222222222,41.04477611940299,40.69881970708866,41.43356671071802,66.66666666666666,0.7002861230329043,0.29971387696709595,3.4552893352429837,2.2604769624043892,0.2777961911432407,0.7222038088567594,6.366914065124628,10.265869330720367,0.3219929237079201,0.67800707629208,5.122334384971647,7.432961361832375,1.4002908161724037,0.8720474575263812,1.3852168465602048,1.1215972421585256,1.0,1.6078659026439013,-0.8022996078097094,0.0032220570497744033,0.11359466847310479,0.38181752495355825,4.217563162817515,0.711608809949157,1.3805689081078782,1.4170460689767272,1.7208151681706654,0.7571532215863394
1,97.4737843154471,80.0625,8.637883532144526,4.519461462928256,4.567511867784218,0.10788925567081376,0.056449167374591804,78.0,7.412999999999999,0.09503846153846153,12.5,73.0,87.6,0.0,0.0,67.0,97.0,2.4,0.0,3.229718614860254,11.862689587750289,0.272258545667025,120.36430864024179,3.6729792908796712,2.7874678356000353,174.28565275976285,0.3958333333333333,0.37209302325581395,0.5625,0.25,48.74999999999999,48.63531562434101,48.87102988197879,60.46511627906976,0.5979166666666667,0.4020833333333334,2.4978251409541476,2.0483291175768223,0.44637443854554604,0.5536255614544541,7.925612314811138,8.826555029604311,0.45683573236818126,0.5431642676318189,5.875987619093006,6.4071727721572405,1.7115562888533191,1.3662647741796388,1.9846510997615454,2.0612896299253496,0.2067990926464489,0.0669241004213541,-0.44390653143361536,0.0009906585105497654,0.13906838004330152,0.37962540515048726,4.485902344426084,0.9289266811968498,1.7185229811917164,1.4237512973592816,2.174357273981625,0.930827083453526
1,86.58669789891773,90.71428571428571,16.83533698589284,6.880513310403094,6.946660892902115,0.18558639197047228,0.075848178224916,92.5,20.7564,0.2243935135135135,26.25,71.0,105.60000000000002,0.0,2.380952380952381,67.0,122.0,4.2,31.25,4.912031023974483,23.364711770051024,0.21023289618623683,360.55489968177034,4.756629519645395,3.2639415116484924,444.54911089372365,0.5238095238095238,0.5263157894736842,0.8,0.2222222222222222,55.61497326203207,56.21231502998983,55.014216959910144,50.0,0.7583719732096856,0.24162802679031417,4.2895221179054435,2.42126000256065,0.5043340608427195,0.49566593915728047,16.592796152136067,16.44958576837786,0.5151441182997223,0.4848558817002778,12.118599014455867,11.756942033352454,1.724782370451794,1.61519246265635,2.1748548101275382,1.7282118459187656,0.3901188949313923,1.1636900559591226,-0.7765261568111965,0.0024742061663852633,0.2183755533608773,0.4090654210029041,4.6420846845804995,0.6713179449519946,1.2123631732800122,1.2907605759234022,1.525891082902223,0.7703310603969659
1,95.28083832955491,81.61702127659575,10.951579579318508,5.141476695337212,5.189174908584606,0.13418254437642593,0.06299515241940797,78.0,10.3782,0.13305384615384616,14.5,71.2,91.80000000000001,0.0,0.0,68.0,108.0,2.611111111111111,0.0,3.669300766623258,15.132618255467243,0.24247626581722442,174.44047507133513,4.124114979376116,2.948617370722744,249.63463049821166,0.46808510638297873,0.425,0.6470588235294118,0.25,45.624999999999986,45.583845956023204,45.72056575536392,60.0,0.6324013157894737,0.3675986842105265,2.9230881691191666,2.228601953392904,0.45580438112118443,0.5441956188788156,10.216527869776778,11.163274320367426,0.4656433481699359,0.5343566518300642,7.514049712317921,8.049390045787366,1.6270465422784552,1.6013059383263206,2.1691743617765034,1.821341636385641,0.8528298503050129,1.2428686423907962,-0.7172181574211959,0.003133476371047214,0.2718390230098659,0.4508271537632722,4.61278752175231,0.6878873140529065,1.625862078011442,1.3515304312052188,1.9821894665465922,0.47273096610022447
1,107.86907682881676,71.92307692307692,8.286171219819375,4.840596300975697,4.854914631425704,0.11520879770871859,0.06730240846276371,70.0,2.9652,0.042359999999999995,5.25,68.0,74.0,0.0,1.9230769230769231,62.0,105.0,1.793103448275862,0.0,3.432943057962903,10.27778872990054,0.3340157253841629,110.84501299827409,2.9938710186469986,2.751686268611656,123.08149525690388,0.5,0.5,0.6842105263157895,0.18181818181818182,63.8095238095238,61.34416082037822,66.57611763392825,55.26315789473685,0.9163179916317991,0.0836820083682008,3.3090784215548594,0.9999999999999999,0.5631489141743035,0.4368510858256965,7.712786534357571,6.793074786273378,0.5990416247443092,0.4009583752556909,5.934520878915477,4.855196445660211,0.7879089075296337,1.4987919381102368,0.44457432931704854,0.5048571179008583,1.0,2.080626797939137,-0.4597790813714825,0.015583538334033302,0.5195808850482829,0.41178694508280866,3.679491444205176,0.5764490874076845,1.0318046522623063,1.5294698424498931,1.4864219854378093,0.8769907258678603
1,97.46203834324653,79.77083333333333,7.041637815208006,1.8042503010769237,1.7426998523004877,0.08827333902585122,0.022617919679209283,79.5,6.6716999999999995,0.08392075471698113,9.25,73.0,85.0,0.0,0.0,70.0,97.0,2.526315789473684,0.0,1.2322748831344694,9.619663603504458,0.12809958164083304,37.24065873328508,7.8064267438734545,2.2779874643790587,300.38079688585316,0.5625,0.5277777777777778,0.7368421052631579,0.3,31.343283582089555,31.583550269924725,31.08200781735701,63.888888888888886,0.26797385620915026,0.7320261437908497,0.6675718492514819,1.1033545687347408,0.38540075776742444,0.6145992422325754,5.97195005953094,7.541468048799036,0.38332767890139474,0.6166723210986051,4.249108123326861,5.389393826554364,1.7993559807040576,0.26094364122440594,1.5841964877841512,1.6770183290195488,1.0,0.7055930461312414,-0.14428395035856537,0.00015509325550006124,0.011163714590109248,0.42647720094606445,4.191340563438218,0.5984487670224689,1.570850769128569,1.2833647356443103,1.344170021161353,0.5817669271584537
1,97.50976347130617,80.20833333333333,7.663004058831873,4.166737588048901,4.193956270061675,0.09553875190231946,0.051948936162687594,78.5,7.412999999999999,0.09443312101910827,11.25,73.4,86.6,0.0,0.0,69.0,101.0,2.1818181818181817,0.0,2.9655749185604496,10.37319358904926,0.28588832292604066,96.64318976035328,3.4978693420042206,2.692141365597897,145.13630333524054,0.25,0.20930232558139536,0.1111111111111111,0.14285714285714285,56.25,56.41747957122797,56.06237245289414,53.48837209302325,0.6237745098039217,0.3762254901960783,2.3521498029785803,1.8267338398735404,0.4872553796941024,0.5127446203058977,7.2408708998430935,7.427848534245845,0.4976515087377056,0.5023484912622944,5.383438496158691,5.408784076363063,1.6565050307258853,1.460244216794746,2.003148176245813,1.8538876659973975,0.32158300867051004,0.5251436056669778,-0.6022161283240992,0.000658097358083458,0.1433711937810595,0.27793310992996956,4.498734053066623,0.8781088744162076,2.0405561079936256,1.4566821361807933,1.6875275627572457,0.8144736980218353
1,98.21139701857115,79.16666666666667,5.962054955363976,2.782926670083822,2.8077466513370393,0.07531016785722916,0.03515275793790091,78.0,5.9304,0.07603076923076922,7.25,74.4,83.6,0.0,0.0,69.0,94.0,1.92,0.0,1.985376697014241,8.20567029418519,0.2419517998939276,51.18077474995771,4.133054601943044,2.416076965703751,135.65793348563773,0.3958333333333333,0.34146341463414637,0.5714285714285714,0.1,46.07843137254902,46.21156315229567,45.960646850296136,68.29268292682927,0.6456043956043956,0.3543956043956045,1.5982327196272,1.1841342462083757,0.35874808425282856,0.6412519157471712,4.914834047798679,6.57095360350932,0.37466841597257644,0.6253315840274233,3.654445343926223,4.721207746568435,1.6730296258135726,0.5596565284772455,1.7178928390137411,1.5605403900522528,1.02574737849738,0.9377803622918153,-0.7811589626044825,0.00045714469753172513,0.03393941646180271,0.4173295821250744,4.209147917027246,0.7029947118454388,1.7037435836495542,1.4132261665189116,1.8199304611868974,0.8144736980218353
1,103.59894906668632,75.19607843137256,5.730687944193567,2.5298221281347035,2.5475077857324298,0.07620993093973193,0.033643006136863066,73.0,5.9304,0.08123835616438356,7.0,70.0,79.0,0.0,0.0,68.0,89.0,1.8888888888888888,0.0,1.8013600304169273,7.9168639431202505,0.22753454440533968,44.802636966014504,4.39493705280442,2.3582736861493565,139.17647474252198,0.5490196078431373,0.47368421052631576,0.7777777777777778,0.4444444444444444,44.44444444444445,44.260567070636334,44.64213259045617,57.89473684210527,0.5750000000000001,0.4249999999999999,1.3702375780893485,1.1780301787479028,0.46472655283345693,0.5352734471665429,5.396993872253595,5.7921664199792025,0.4701870535659021,0.5298129464340978,3.937327385267259,4.179530292914235,1.812969326557945,1.3196043107057038,2.1109341307165175,1.9048843739377932,0.5337449437584372,0.9229455519618233,-0.6561451073682323,0.0004593683604756343,0.11171761611406972,0.5966570706850125,3.9422521859415443,0.7982182136522057,1.7529048660391653,1.2758368557205573,2.161208995063996,0.6673441578789994
1,97.44961122458834,80.33333333333333,8.926015845003203,4.007970781734073,4.044388307365968,0.11111223043572452,0.049891752469718754,79.0,7.412999999999999,0.09383544303797467,10.25,72.4,85.6,0.0,0.0,65.0,103.0,2.823529411764706,0.0,2.8598143978900583,12.240308896720766,0.23363907087804095,109.9714873362497,4.280106046655175,2.748250208777573,209.5592804871267,0.3958333333333333,0.37209302325581395,0.625,0.0,54.014598540145975,54.59315053090088,53.482836648752716,48.837209302325576,0.6490066225165563,0.35099337748344356,2.3078316568852544,1.697184369067985,0.41647687182900733,0.5835231281709925,7.899285711001427,9.350211074789177,0.42855204821278103,0.5714479517872189,5.819140903112463,6.719631013892015,1.6209578334193355,0.5061699252617311,1.6270016154657143,1.6448823620493491,0.30630249934173115,-0.05503708416533115,-0.4646744192192197,0.00012094604544894045,0.009767919155455525,0.4305739486434841,4.470713678734406,0.8095224063074292,1.5366167304796086,1.5011685977136948,1.5151591643563365,0.6981203125901446
1,97.06550069440193,80.53191489361703,7.964189043652483,3.230291412348993,3.2633227487208254,0.09889481771510347,0.04011194091952514,78.0,4.4478,0.05702307692307692,6.0,75.0,83.80000000000001,0.0,0.0,71.0,103.0,1.8076923076923077,0.0,2.3075176448208192,11.07035035601091,0.20844124807377007,80.25207475363813,4.79751493162278,2.611426378981489,212.44068452503163,0.44680851063829785,0.41025641025641024,0.625,0.25,47.0,46.6302517549225,47.359419435592315,64.1025641025641,0.64375,0.35624999999999984,1.8529256146249728,1.3784048752090219,0.5191174161898097,0.48088258381019044,7.976165660989232,7.676811731004422,0.5243150700680546,0.4756849299319456,5.790187906487885,5.515135463127225,1.8429888819855005,0.38793221647872245,1.455056665506778,1.6490227737461391,0.9735871553468134,-0.22936288452059062,0.0,0.0011111339016019962,0.03862431288772337,0.43133455205935434,4.194670831233092,0.63550681277027,1.3089199557998854,1.2838458082922326,1.567607445233649,0.7090964491503368
1,95.57463341353345,81.85106382978724,13.701759206955959,6.7502012852436,6.821251248783745,0.16739866980164544,0.08246931645605646,79.0,13.343399999999999,0.1689037974683544,21.0,70.0,92.80000000000001,0.0,2.127659574468085,67.0,112.0,3.9166666666666665,0.0,4.823353014192191,18.91733862051139,0.2549699569770561,286.65462876341047,3.9220307045429146,3.1643290689110577,296.7775316715247,0.44680851063829785,0.425,0.7647058823529411,0.1,52.976190476190474,53.1402673412006,52.82185898410465,57.49999999999999,0.7762404580152672,0.22375954198473277,4.251797005711559,2.2827858224351907,0.48954735612530736,0.5104526438746927,13.236019323022639,13.515675823415677,0.5070645630048765,0.4929354369951235,9.830309895857974,9.69238371286378,1.711121389268239,1.0550119377680396,1.4679267383498986,1.445931362808417,1.0,1.6959137922764258,-0.5208484612866227,0.006673440494167358,0.22721489201339415,0.342055363231625,4.570234330262948,0.6399224822969667,1.2412884709941945,1.1895619223035736,1.583228456018703,0.7090964491503368
1,98.64672170258692,78.97916666666667,5.265259821975341,3.5520446614021823,3.588835602333094,0.06666643931807342,0.04497445100166308,79.0,5.9304,0.07506835443037975,8.0,74.0,83.0,0.0,0.0,71.0,93.0,2.0869565217391304,0.0,2.5376899909734383,6.931507118536349,0.3661094113554477,55.26066578690689,2.7314239104034437,2.4493862230040633,75.73153711480744,0.5833333333333334,0.5384615384615384,0.7142857142857143,0.2727272727272727,52.0,51.865608289678924,52.136811820962215,46.15384615384615,0.5109612141652615,0.4890387858347386,1.8147942750817696,1.7754362599213405,0.6258035179353255,0.37419648206467476,5.483358914815139,4.240113907153605,0.6122191182070521,0.3877808817929478,4.084158618953984,3.2504414976031244,1.5449454996938463,0.9192164344401537,1.5449454996938463,1.8593191417779673,-0.15679250308672898,-0.676257004736839,-0.15799823599151658,0.000695304747190626,0.061093329080304876,0.48772257923296447,4.082067386399956,1.1750403572371022,2.161243572369063,1.6334808752656838,2.555282456027357,0.930827083453526
1,93.5233077077113,83.21739130434783,8.191901267520967,5.5196618253899095,5.581625699968196,0.0984397748970649,0.06632822465202086,82.0,7.412999999999999,0.09040243902439024,9.0,76.0,87.0,0.0,2.1739130434782608,74.0,109.0,2.7058823529411766,0.0,3.9468053824926206,10.987757190655792,0.35920027299557206,136.24000103019932,2.78396224941713,2.841274748200319,122.35800489818936,0.43478260869565216,0.3513513513513513,0.5384615384615384,0.1111111111111111,49.01960784313725,48.954831263502406,49.10699574170063,54.054054054054056,0.6425966447848286,0.35740335521517147,3.1640738986887826,2.359699518621347,0.43971994349786164,0.5602800565021384,7.286133687199549,8.224540350260552,0.46290766700815805,0.5370923329918419,5.61689895512229,6.050258085042563,1.4867822040600345,2.220067357631369,1.9709378261561408,1.9844111786877856,-0.32706388571188505,0.041314524811973286,-0.4939311064210143,0.0014971452690536525,0.33644817039371844,0.39308773623817306,3.9774877065186707,0.8850017688438688,1.449976207509221,1.527046397489692,2.148281718656368,0.7204646029639583
1,100.25878224052474,77.6938775510204,7.413962283063886,4.0697051490249265,4.110130625523385,0.09542530913320998,0.05238128508069908,75.0,4.4478,0.059304,6.0,73.0,80.80000000000001,0.0,0.0,71.0,104.0,1.4,0.0,2.9063012368700916,10.141540425328962,0.2865739438962814,92.59646891671856,3.4895007773697886,2.6735645355289974,141.5556527916502,0.40816326530612246,0.37209302325581395,0.5625,0.1,47.407407407407405,47.15109145454754,47.671438115537185,60.46511627906976,0.5861635220125786,0.41383647798742135,2.226532462936626,1.8708286933869707,0.31244228962446924,0.687557710375531,5.668769939442752,8.40927402171268,0.3332402264531893,0.6667597735468107,4.306529892781451,6.0916290748966215,1.362331340801575,1.06989435105063,1.6112551118221243,1.5028665509690873,0.5249391098522942,0.48475524920479707,-0.6013077232780976,0.0003554857179525262,0.07549276863076146,0.5744753104393312,3.8035859995396155,0.8598764838719917,1.3505620916717707,1.5936041201575424,1.7406301150654766,1.031273236674222
1,96.03516680700031,81.57446808510639,19.13310888719282,8.536367214300899,8.601988310765758,0.23454776152792448,0.10464508582997971,71.0,13.343399999999999,0.18793521126760562,36.5,63.400000000000006,103.80000000000001,0.0,2.127659574468085,61.0,114.0,2.9375,0.0,6.082524266229881,26.443650781740907,0.23001832524689847,505.30679237143505,4.347479701569925,3.4105252460579414,459.85294003608897,0.425531914893617,0.375,0.8,0.125,57.61904761904763,57.461687123935,57.601951946448594,67.5,0.858890214797136,0.141109785202864,5.655872071474821,2.29249984853992,0.3856897702354848,0.6143102297645152,16.42254547870092,20.72599012512229,0.4096189240563617,0.5903810759436381,12.281874630708637,14.744867280213516,1.6363851963841687,2.1591768129218405,2.219232864059954,1.8791873599139768,0.08821004942618238,0.988086653464185,-0.6574884938143722,0.0025418076497020574,0.34584845261999103,0.34069525718747684,4.503863788161592,0.49252892474669147,1.104903588834725,1.1545141909968557,1.673213658966039,0.5909137076252805
1,100.02484499546158,77.6938775510204,10.29401946446061,5.686240703077327,5.73884981186305,0.13249460303613603,0.0731877579329627,75.0,8.8956,0.118608,13.0,69.0,85.0,0.0,0.0,65.0,107.0,2.3333333333333335,0.0,4.057979618179505,14.054604757644983,0.28872954367302095,179.17539518443132,3.4634488292354146,2.9602484809726506,194.709617572928,0.3469387755102041,0.3076923076923077,0.5,0.0,46.42857142857143,46.06731409154981,46.800682755774694,66.66666666666666,0.6101804123711342,0.389819587628866,3.174030259009259,2.536960822079434,0.3288116652305041,0.6711883347694959,8.059205784215987,11.514387392357293,0.35051565606361845,0.6494843439363817,6.12475574849507,8.337184393847917,1.5310760709346174,0.6207697251127549,1.6452795099185602,1.5664348855667791,0.36901236566596296,-0.05401326899923653,-0.6270110657175815,0.0013348659748144665,0.04498217450334421,0.4234773935663605,4.449007487405744,0.7981827588427094,1.4007958174338724,1.5925994831690258,2.136468995334198,0.8021014063021725
1,107.91891465848556,72.50943396226415,11.3385364703221,5.053559294048259,5.024074770557344,0.15637325863311768,0.06969519713363459,67.0,4.4478,0.06638507462686567,9.0,65.0,76.6,0.0,0.0,62.0,112.0,1.7096774193548387,0.0,3.5525573394493457,14.74898058700864,0.24086799209557225,164.6087712259113,4.151651663219816,2.923423082961501,244.9305191394048,0.4339622641509434,0.46153846153846156,0.7222222222222222,0.08333333333333333,64.37500000000001,62.87447333434043,66.04948459670963,46.15384615384615,0.7281626506024097,0.27183734939759036,3.079024546323518,1.8812803316556812,0.7317848784369613,0.2682151215630387,12.616930753577176,7.638421742441054,0.7315803259779944,0.2684196740220058,9.183336370770272,5.562584938752429,1.2320715563634321,0.5904187718356209,1.2906466590161139,1.1264274726398522,0.7024646794851348,0.6040436520116126,-0.7781401849160414,0.0014540030543814487,0.054265679600245566,0.41277573012152313,4.026395747631423,0.5471936760205773,1.004782191440447,1.4911703742009639,1.4608744818051356,0.5403698542040754
1,103.95696210060385,74.2156862745098,10.63073605257923,3.249615361854384,3.148306963225454,0.1432410934429434,0.043786098666994344,71.0,8.8956,0.12529014084507042,13.5,66.0,81.0,0.0,0.0,63.0,112.0,2.125,0.0,2.2261892029535444,13.948418094785472,0.1596015539415033,97.55216255823134,6.265603155508856,2.6962070113365773,349.5810097161787,0.47058823529411764,0.45238095238095233,0.7368421052631579,0.3,29.824561403508763,32.05727611543079,27.300406806533424,66.66666666666666,0.23863636363636367,0.7613636363636361,1.1338934190276817,2.0253495541082605,0.17867681489002807,0.8213231851099717,5.896021488067617,12.641016492323065,0.1802924869556695,0.8197075130443304,4.245514319459384,9.052550435526728,1.5557055293308766,1.0979153674855961,1.8105304867634646,1.6850239660144508,0.6203265089992485,0.6938472373113624,-0.6143134748504742,0.00044038379916059314,0.08229375367498303,0.4189828805304403,4.444401999165796,0.5802231262915621,1.3005069415888977,1.4271951162164054,1.2752529025215849,0.6673441578789994
1,139.27847053848302,55.927536231884055,3.5986878351278757,1.6494205756247002,1.6610895860302843,0.0643455456397573,0.029492101507671502,55.0,2.9652,0.05391272727272727,4.0,53.0,58.0,0.0,0.0,49.0,68.0,2.090909090909091,0.0,1.1745677104403691,4.755420639746881,0.2469955445419626,17.547565361458144,4.048656026789616,1.951186978716236,77.01224973212378,0.6521739130434783,0.7272727272727273,0.875,0.46153846153846156,52.05479452054793,51.77842294102651,52.35841986091023,54.54545454545454,0.6594594594594594,0.3405405405405405,0.9541738631895288,0.6856743058707561,0.4671528971000025,0.5328471028999976,3.250262683102239,3.4712847696153757,0.4782177874191219,0.5217822125808779,2.3952719334515025,2.5019959238071325,1.0840032226894882,1.0618388974501722,1.1798926770100344,0.913174136177682,1.0178999379624973,1.629012973335215,-0.7511855060808492,0.0013330785043559961,0.11542900546687024,0.5614622844643975,3.3542646207339533,0.6832325021125275,1.3144868447295177,1.4833005011175067,1.6430429167791905,0.7082347196264543
1,106.29610803411644,73.67307692307692,8.542216165233393,5.942535274627832,5.999019527732648,0.11594759608252062,0.08066088078325431,72.5,2.2239,0.03067448275862069,3.0,70.0,74.0,0.0,1.9230769230769231,60.0,104.0,1.4444444444444444,15.625,4.241947388530275,11.33505753897018,0.37423254129468386,151.05631277349713,2.6721353427482,2.886108989491034,121.1552314478666,0.6153846153846154,0.6585365853658536,0.9259259259259259,0.18181818181818182,53.103448275862064,53.29934663119015,52.975074405715304,51.21951219512195,0.7545807884508605,0.24541921154913934,3.686461718233352,2.1023796041628637,0.47726446431004843,0.5227355356899517,7.83074854898114,8.195297833172049,0.5113578950426616,0.4886421049573385,6.120074461857888,5.982595865274308,1.3973649519107116,0.8205634589478352,1.298007171815097,1.2808174449042453,-0.1807316976289286,0.043825807978277176,-0.520948686811978,0.0038608165495119516,0.08740994154248347,0.5411611020290543,3.6178901265538275,0.6166296619696885,1.0778350352226231,1.780742630080744,1.4733311110224778,1.2058622480683079
1,104.86319733535623,74.43137254901961,17.10935989680594,5.786190456595773,5.83990494750714,0.229867585547182,0.07773859675616028,71.0,17.7912,0.25058028169014085,25.0,59.0,91.0,0.0,1.9607843137254901,57.0,111.0,2.55,0.0,4.129436389867167,24.04843751553883,0.1717132926910093,311.98054885035424,5.823660966070094,3.2010976277292955,560.1997874168766,0.4117647058823529,0.375,0.6666666666666666,0.2,54.91803278688524,54.70135175935563,55.01543304703296,67.5,0.8870967741935485,0.1129032258064516,3.8926933124110605,1.388730149658827,0.39448337287970514,0.605516627120295,15.10432131705955,18.71327936225492,0.40861591278023945,0.5913840872197604,11.029360445498854,13.268673556885167,1.69598879481042,0.9842968661235654,1.801799449094077,1.5176471673750798,1.0,1.380777448207322,-0.7886855495518013,0.005040036896554791,0.17440198515619715,0.25148291008902257,4.544468725592466,0.3161597015205252,0.8452074835857638,1.1305677884937988,1.4114859192823175,0.5561201315658328
1,111.38967355413486,69.81818181818181,6.188672175811489,1.990719207463213,2.0006986899776456,0.08863983585146665,0.028512905315228314,67.0,4.4478,0.06638507462686567,9.0,65.0,77.2,0.0,0.0,62.0,83.0,1.6176470588235294,0.0,1.414707610794235,8.515247146282022,0.16613817385346624,37.84546276606509,6.019086262992148,2.2849839300257253,205.01602849667682,0.7272727272727273,0.7105263157894737,0.8518518518518519,0.5,43.24324324324324,43.93527331199979,42.5035696252362,60.526315789473685,0.4766355140186916,0.5233644859813084,0.9809506363438458,1.0279123375000931,0.3261630092231185,0.6738369907768815,4.863115789100344,6.989959855683513,0.33023909985935296,0.6697609001406468,3.5080022326917395,4.995805368389164,1.5786283823367981,0.17990241989659372,1.466006056981854,1.555957266930151,1.0197345774637694,-0.44744764563830186,0.0,0.00012520140445919535,0.00651570969166358,0.5033001045413616,3.871405781439183,0.6325027773587704,1.5107789005586154,1.5336019700199501,1.4614653604929528,0.42046252461997524
1,101.9457352516653,76.62,14.894033869236338,7.267484195415374,7.340943793703431,0.19438833032153924,0.09485100750998922,69.0,7.412999999999999,0.10743478260869564,20.75,65.0,96.0,0.0,4.0,62.0,109.0,1.9230769230769231,0.0,5.190831136836996,20.52675788125456,0.25288119862208563,334.739631325206,3.9544260524264376,3.231677243433772,324.68618454993094,0.5,0.46511627906976744,0.85,0.3333333333333333,47.97979797979797,47.189392272888,48.72392236665805,67.44186046511628,0.777047913446677,0.22295208655332302,4.57688940948617,2.4516151138926077,0.3345049031610504,0.6654950968389496,11.87193755859809,16.745294494884057,0.3611166788835077,0.6388833211164924,8.996966657210601,11.966939967825128,1.5083089566306322,1.1150820531417116,1.766400949846705,1.6778906256139448,0.13224121761887275,-0.024320773009919527,-0.579375615438689,0.0007713646390288185,0.07773843404091783,0.4019602508619964,4.325533250556852,0.5863595776934775,1.1681696305151776,1.4331863522024237,1.7365364470307942,0.45150849518197794
1,113.32742843718914,69.0,13.977495139343471,5.03506224905431,5.079555767235244,0.20257239332381843,0.07297191665296102,63.0,7.412999999999999,0.11766666666666666,15.0,58.8,76.2,0.0,1.8181818181818181,57.0,107.0,2.037037037037037,0.0,3.591788328427277,19.577316306547143,0.18346683846682774,220.90918084518427,5.450576291370541,3.0511838752109943,426.830624436511,0.6,0.5757575757575757,0.7368421052631579,0.3333333333333333,53.84615384615383,54.552413100239924,53.202877494306,63.63636363636363,0.7706355003652302,0.22936449963476985,3.1548106422857214,1.7211229331292393,0.45748738706092124,0.5425126129390788,13.241668772118068,14.419761506214654,0.46769555509205596,0.532304444907944,9.625347319945552,10.268685067890953,1.6340750585329105,0.7686316987964419,1.8303413896171445,1.551050952778552,1.0,0.9352255980202733,-0.8633605500214444,0.0029772705619478105,0.1107661505328484,0.20114583942511421,4.135841650542516,0.3460272759613997,0.6827659998662771,1.175146191213707,1.2875951339776721,0.42046252461997524
