Stress,ECG_Rate_Mean,HRV_MeanNN,HRV_SDNN,HRV_RMSSD,HRV_SDSD,HRV_CVNN,HRV_CVSD,HRV_MedianNN,HRV_MadNN,HRV_MCVNN,HRV_IQRNN,HRV_Prc20NN,HRV_Prc80NN,HRV_pNN50,HRV_pNN20,HRV_MinNN,HRV_MaxNN,HRV_HTI,HRV_TINN,HRV_SD1,HRV_SD2,HRV_SD1SD2,HRV_S,HRV_CSI,HRV_CVI,HRV_CSI_Modified,HRV_PIP,HRV_IALS,HRV_PSS,HRV_PAS,HRV_GI,HRV_SI,HRV_AI,HRV_PI,HRV_C1d,HRV_C1a,HRV_SD1d,HRV_SD1a,HRV_C2d,HRV_C2a,HRV_SD2d,HRV_SD2a,HRV_Cd,HRV_Ca,HRV_SDNNd,HRV_SDNNa,HRV_DFA_alpha1,HRV_MFDFA_alpha1_Width,HRV_MFDFA_alpha1_Peak,HRV_MFDFA_alpha1_Mean,HRV_MFDFA_alpha1_Max,HRV_MFDFA_alpha1_Delta,HRV_MFDFA_alpha1_Asymmetry,HRV_MFDFA_alpha1_Fluctuation,HRV_MFDFA_alpha1_Increment,HRV_ApEn,HRV_ShanEn,HRV_FuzzyEn,HRV_CD,HRV_HFD,HRV_KFD,HRV_LZC
0,110.05718190576248,70.83333333333333,2.400864624129446,1.0902656764674463,1.099214655659328,0.0338945593994745,0.0153919860207168,70.0,1.4826,0.0211799999999999,2.0,69.0,72.0,0.0,0.0,66.0,77.0,1.8,0.0,0.7772621369963466,3.2591837420942533,0.238483681345594,7.958408551537251,4.19315902185722,1.6077963402137063,54.66510284821157,0.6851851851851852,0.7297297297297297,0.8888888888888888,0.3076923076923077,53.333333333333336,53.50576697741028,53.16599285502868,45.94594594594595,0.5079365079365079,0.4920634920634922,0.554700196225229,0.5459642140991688,0.54551536342104,0.45448463657896,2.407200906893847,2.1971942241369864,0.5434879304610173,0.4565120695389828,1.7467553511930152,1.6008965272087163,1.586603343108839,0.7031730077823768,1.7451019932754883,1.3935154893843,1.3169973003332984,0.1531494928743475,-1.0,0.000909253998615,0.0621662812365763,0.6745152976013045,2.8170925164419685,0.887351479998801,1.7410476562833004,1.461849017949782,1.5499721391922392,0.9591479170272448
0,110.04613390794968,70.98148148148148,1.9473323866712884,1.3031167282892082,1.3067314834392416,0.0274343722620009,0.0183585450893861,71.0,1.4826,0.020881690140845,2.0,70.0,72.4,0.0,0.0,66.0,76.0,1.6875,0.0,0.9239986931298444,2.4917134072598963,0.3708286396170872,7.233014216319048,2.6966633457237474,1.566289428655319,26.87724885362476,0.6851851851851852,0.7142857142857143,0.88,0.3333333333333333,57.99999999999999,57.89724311650761,58.10690146386158,42.85714285714285,0.6111111111111112,0.3888888888888889,0.7272180923534244,0.5801193511153213,0.540288548798467,0.4597114512015331,1.8315170691229152,1.6894321322356003,0.548952470172885,0.451047529827115,1.3934311838649849,1.2630754908097517,1.4654261019289512,0.4984163958939056,1.691264881448281,1.442056683501328,1.4576559031043264,0.441106821104098,-1.0,0.0003550769142589,0.0278052585288334,0.5245348437071273,2.788895414259689,1.1695534629962052,1.981052098158195,1.6376183160801665,1.8572636504239828,0.8525759262464397
0,107.83995810142048,72.22641509433963,2.2756360854965223,1.1766968108291045,1.1856354934711522,0.0315069781952235,0.0162917792512911,72.0,1.4826,0.0205916666666666,2.0,70.0,74.0,0.0,0.0,70.0,79.0,1.358974358974359,0.0,0.8383708974489101,3.110217676784603,0.2695537690839801,8.191753062428617,3.709834974292077,1.620346962133461,46.15357725998789,0.6415094339622641,0.8214285714285714,1.0,0.5555555555555556,44.73684210526317,44.72131586914848,44.757307434388025,53.57142857142857,0.4305555555555557,0.5694444444444443,0.5512908203729234,0.6340037731068525,0.5246100473160582,0.475389952683942,2.252729712830009,2.1444493087774843,0.5182135491479384,0.4817864508520614,1.639925719002941,1.5812374303421284,1.291917169344469,0.8972484025235259,1.5140717754170376,1.0664880495034446,1.448471113537816,0.1137863248184247,-0.9988403709103928,0.0006540360825995,0.0764270575843945,0.5128392688072814,2.6789485553759813,0.8183022335474645,1.563803812329223,1.491395044096692,2.05462691664118,0.5403698542040754
0,111.9963402970988,69.58181818181818,1.6408095234535578,1.0886621079036347,1.0963378464938565,0.0235810096132599,0.0156457841480794,70.0,1.4826,0.0211799999999999,2.5,68.0,71.0,0.0,0.0,66.0,72.0,1.4102564102564104,0.0,0.7752279257272621,2.173630158120444,0.3566512558868837,5.293768343107594,2.80385946633863,1.4307350424859913,24.37821398066056,0.7818181818181819,0.911764705882353,1.0,0.75,45.45454545454546,45.50628264175074,45.40308466517747,50.0,0.4062499999999999,0.5937499999999999,0.4952605565436485,0.5987408170800916,0.5371246856973821,0.4628753143026179,1.5930272593576682,1.4788279870336851,0.5222950819672132,0.4777049180327867,1.1796225811513883,1.128145110628911,1.4188670280208828,0.7780169136149389,0.6524568728287514,1.0414653296362208,1.023213516845615,-1.1231425064594949,0.0,0.0003295344343213,0.0476849222733367,0.6731387691065738,2.6343821714911786,1.0894602566265557,2.01782275110272,1.499325120710483,1.9979345825718504,0.8409250492399505
0,105.0958771561301,74.41176470588235,2.892586873981387,1.6852299546352716,1.6849877368899122,0.0388727089784059,0.0226473590741498,74.0,2.9652,0.0400702702702702,3.0,72.0,76.0,0.0,0.0,68.0,81.0,1.2142857142857142,0.0,1.1914662549710309,3.76167570128429,0.3167381639422684,14.080334462615104,3.1571819055637045,1.85558308107065,47.50517783477368,0.5686274509803921,0.5853658536585367,0.7916666666666666,0.25,59.09090909090908,59.2414472160332,58.949894699288485,36.58536585365854,0.5704225352112676,0.4295774647887324,0.9091372900969896,0.7889543583705185,0.7339627322026078,0.2660372677973923,3.2226886987389256,1.940227211605141,0.7187717829295096,0.2812282170704903,2.367726025242837,1.4810352143424708,1.3667720411118132,0.5909528428959221,0.7758191982158911,1.071295619663852,1.0104880753605885,-0.7625085113673056,0.0,0.0004489659999126,0.0359904181847811,0.4471706968869946,3.202083441591458,1.0830770198239312,1.7758503037407052,1.6247542121599758,1.7103103520671992,1.1122402631316657
0,108.2923426299017,71.9245283018868,2.2433582021652407,1.0561177090573832,1.0550460520497205,0.0311904471969458,0.0146836932266635,72.0,1.4826,0.0205916666666666,2.0,70.0,73.0,0.0,0.0,69.0,80.0,1.358974358974359,0.0,0.7460302178684525,2.8987436816881025,0.2573632924432963,6.79385238806541,3.885558000546351,1.5390862165604031,45.05294681566557,0.6415094339622641,0.6764705882352942,0.9130434782608696,0.3333333333333333,40.47619047619049,40.9464301026815,39.98349621286361,58.82352941176471,0.396551724137931,0.6034482758620688,0.474858079933817,0.585779186129006,0.2542907639838172,0.7457092360161827,1.4617567511828795,2.50319438567962,0.263307640577311,0.7366923594226888,1.0867895370556249,1.8178447936223725,1.5337780541193218,0.353208343211004,1.6748729583647322,1.49826878675923,1.3284675822448315,0.0569815046641997,-1.0,2.168081562026001e-05,0.0063922735485149,0.5488640679888852,2.8690757415907733,0.9675437176294516,1.8073094569476351,1.4973826118344196,1.5130346766795209,0.7565177958857056
0,110.77832134201483,70.38181818181818,1.459209693393286,0.7576767609436587,0.7627325916002987,0.0207327649539216,0.0107652342681222,70.0,1.4826,0.0211799999999999,2.0,69.0,72.0,0.0,0.0,68.0,73.0,1.71875,0.0,0.5393333877525607,1.9902364758764608,0.2709896006277589,3.3721886361499704,3.690178507527438,1.234881970501572,29.37731147270587,0.6727272727272727,0.7419354838709677,0.9565217391304348,0.2307692307692307,45.16129032258067,45.17552290951009,45.14797064713037,54.83870967741935,0.4516129032258065,0.5483870967741935,0.3634218921558155,0.4004714203168136,0.4902662001303557,0.5097337998696442,1.3935439111657844,1.4209421513777123,0.4876085577506697,0.5123914422493303,1.0183418149239831,1.043899888890809,1.4049057935722005,0.6909398959866362,0.8781218011857632,1.223591749179081,1.3361540077903928,-0.223968089899218,0.0,0.0001387335714276,0.0311429853293327,0.7101868834305334,2.4714701010328257,0.968646641478464,2.065758608051202,1.527395871834491,2.054809726634984,0.8409250492399505
0,111.6983773191208,69.83636363636364,1.166883096807971,0.9128709291752768,0.9212530584827394,0.0167088181006088,0.0130715701912627,70.0,1.4826,0.0211799999999999,1.5,69.0,71.0,0.0,0.0,68.0,72.0,1.3414634146341464,0.0,0.651424284841992,1.5073196670303062,0.4321739436501988,3.084744391371305,2.31388313592871,1.196189293236697,13.95104623198042,0.6727272727272727,0.8888888888888888,1.0,0.3636363636363636,48.48484848484848,48.44969713687465,48.519584550180674,55.55555555555556,0.5333333333333334,0.4666666666666666,0.4758309514308864,0.4450990985692621,0.4487697039600152,0.5512302960399846,1.0097576007632183,1.119107754560418,0.4620829284094589,0.537917071590541,0.7893115692293867,0.8516206238297751,1.0593632977448009,0.2994877993226066,1.1340136657149242,0.9842697660536208,1.14528461628983,0.032400772194975,-1.0,7.764253884911302e-05,0.0083785055996497,0.8320285985313309,2.172718965374004,1.133319413230153,2.004491538992748,1.5870338900768488,2.507078242481002,0.8409250492399505
0,110.75810832497656,70.5,1.8908917732417176,0.9905211130872972,0.9934473265911864,0.0268211599041378,0.0140499448664864,71.0,1.4826,0.020881690140845,1.75,69.0,72.0,0.0,0.0,66.0,74.0,1.862068965517241,0.0,0.7024733413842746,2.53623951655617,0.2769743696518565,5.597189170295952,3.6104423714618497,1.4549400951296132,36.62778645900125,0.6481481481481481,0.78125,0.88,0.5555555555555556,57.89473684210527,57.80768732471222,57.9826352213652,40.625,0.5384615384615385,0.4615384615384617,0.5188745216627707,0.4803844614152613,0.5465663527688848,0.453433647231115,1.8750450697908625,1.707839826094371,0.5459818016270697,0.4540181983729304,1.3756861529756323,1.2544891594516236,1.2306039260415584,0.4869233630266558,0.7436805630149026,0.9871422445282304,0.9673939294630368,-0.7625963792856183,0.0,0.0005780195981712,0.0374728208621662,0.5506120394727971,2.821668819275531,0.9003142177152531,1.8044709201872768,1.5193422479155894,1.868842977737741,1.0657199078080497
0,105.97727871430504,73.57692307692308,1.3626121662217188,0.8856148855400953,0.8944271909999159,0.0185195589763537,0.0120365849576803,74.0,1.4826,0.0200351351351351,1.0,73.0,74.0,0.0,0.0,70.0,77.0,1.0612244897959184,0.0,0.6324555320336758,1.8385842805981851,0.3439905032952341,3.653115563941579,2.9070569984361967,1.269633521015285,21.37947720051094,0.5384615384615384,0.7727272727272727,0.8823529411764706,0.3,50.00000000000002,50.00132895633996,49.99867974417639,40.909090909090914,0.4,0.6000000000000001,0.3999999999999999,0.4898979485566355,0.5888585596651655,0.4111414403348346,1.4108766269924589,1.178905976008743,0.5688756000325441,0.4311243999674558,1.0369601864569389,0.9027234627141156,1.225392035324823,1.5281650031469505,0.018370041991901,0.7824525435653762,1.7410049839167645,-0.4724367737707835,0.0,0.000780102504731,0.1590890378237018,0.6267039471164573,2.229300876239463,0.8749810259855295,1.3407410778793685,1.5550859524514362,1.9798554697102275,0.8769907258678603
0,109.47000615788522,71.22222222222223,1.5979546675349885,0.900733453756982,0.9091535801065788,0.0224361809794304,0.0126468035628905,71.0,1.4826,0.020881690140845,2.0,70.0,73.0,0.0,0.0,68.0,76.0,1.588235294117647,0.0,0.642868661633389,2.1821115989973934,0.2946085167819856,4.407061244626791,3.3943350006409148,1.3511191958741704,29.62727110312546,0.5555555555555556,0.6551724137931034,0.8421052631578947,0.25,48.4848484848485,48.46123405564175,48.50912722789287,55.172413793103445,0.5581395348837209,0.4418604651162791,0.4803844614152613,0.4274252071325551,0.3977296091120444,0.6022703908879555,1.376166303139266,1.6934513091857588,0.4105455327170803,0.5894544672829196,1.030680096990629,1.235003976567539,1.3512442911792732,0.8436303579360012,0.5076139332432721,0.9294291122112728,1.0271723215835329,-1.0047292438954372,0.0,0.0007713930015175,0.0709863243059869,0.6986011060500492,2.605313877255337,0.9409900514325864,1.7898830747801897,1.4686713232080972,1.905841724703061,1.0657199078080497
0,109.95727283847673,70.96296296296296,0.9898153622936776,0.980950636343846,0.9901547283464154,0.0139483375688566,0.0138234171092295,71.0,1.4826,0.020881690140845,2.0,70.0,72.0,0.0,0.0,69.0,73.0,1.6875,0.0,0.7001451228376739,1.2201441776378374,0.5738216316313814,2.683793473629845,1.7427018168642208,1.1357192024148084,8.505389900823038,0.7222222222222222,0.9090909090909092,1.0,0.4444444444444444,51.28205128205129,51.29404105670453,51.270007349842736,48.48484848484848,0.5098039215686274,0.4901960784313726,0.4999999999999999,0.49029033784546,0.5165226548452813,0.4834773451547187,0.8769116486217169,0.8483971798250244,0.5148579068347582,0.4851420931652417,0.7137835944768055,0.6928789180367917,1.0807193512538529,0.395804536830745,1.0043924754774016,0.958898258053182,1.0098696420349718,0.8830703496909382,-0.6149411216670165,9.014436137240425e-05,0.0126093780681983,0.7916190754658312,1.88637118321066,1.107110181795061,1.8796983896650368,1.6137119926452463,2.8251417395320133,1.0657199078080497
0,111.1843511026659,70.12962962962963,1.9623464612097683,0.8241633836921342,0.8311776666259886,0.0279817029060806,0.0117519996618366,70.0,1.4826,0.0211799999999999,3.0,69.0,72.0,0.0,0.0,66.0,74.0,1.542857142857143,0.0,0.587731364442048,2.72679548975731,0.215539216875541,5.034789377619704,4.639526924594102,1.4089514172147253,50.60416437036319,0.6481481481481481,0.8,0.9166666666666666,0.4444444444444444,46.87500000000002,46.92464679696909,46.82616970287675,53.333333333333336,0.4722222222222224,0.5277777777777778,0.4043037700313199,0.4274252071325551,0.4716055782468262,0.5283944217531739,1.8725871276372887,1.9821279202836373,0.4716330089263247,0.5283669910736752,1.3546298551734366,1.4337927674633186,1.4061282340091177,0.6916224528635977,0.8749255429183584,1.2207367693501574,1.3245141300841103,-0.1961682601801309,0.0,0.0001874652659295,0.0335758483211189,0.5562235115978682,2.748261284354088,0.8421249681746044,1.507260558164252,1.4686829876657423,1.728983647136291,0.5328599539040249
0,110.23688423383764,70.75925925925925,1.4528460706837896,1.0093898773656798,1.0190493307301365,0.020532239679907,0.0142651278141184,71.0,1.4826,0.020881690140845,2.0,69.0,72.0,0.0,0.0,68.0,73.0,1.6363636363636365,0.0,0.720576692122892,1.9445319859575976,0.3705656154419281,4.401950699575338,2.698577413361525,1.3506152842485697,20.98988038745681,0.7592592592592593,0.8888888888888888,1.0,0.4444444444444444,50.000000000000014,50.00001136116167,49.99999641534315,50.0,0.5000000000000001,0.5000000000000001,0.509524665365068,0.509524665365068,0.5229344592649458,0.4770655407350541,1.406172893386795,1.3430869064645072,0.5201653729328384,0.4798346270671617,1.0575768508035657,1.0157504179009194,1.3027311572812972,0.7277076463450236,0.7275646025460656,1.0914184257185773,1.3073437794246594,-0.1272424253081396,0.0,0.0003155875914036,0.0441904763978532,0.7293387941788891,2.416056608612904,1.0450774556872473,2.049882127212624,1.547824728116897,2.982413438967885,0.8525759262464397
0,110.2677963847436,70.77777777777777,1.5254651832005974,0.8687444855261388,0.873742098099486,0.0215528832791293,0.0122742548975435,71.0,1.4826,0.020881690140845,2.0,69.6,72.0,0.0,0.0,67.0,73.0,1.5,0.0,0.6178289625743082,2.020217120349366,0.3058230505775854,3.921174622014818,3.269864708076693,1.300386293167071,26.42334665793087,0.7222222222222222,0.8709677419354839,1.0,0.7777777777777778,44.11764705882356,43.95530295499199,44.276027831811646,54.83870967741935,0.4250000000000001,0.575,0.4043037700313199,0.47026997156298,0.420060421643093,0.579939578356907,1.309344502826997,1.5384713797368503,0.4204858321938176,0.579514167806182,0.9689800218644382,1.1375517641899322,1.241037151247134,0.9924579216791588,0.4268446762145119,0.9230736370540912,1.394264804532087,-0.7179700641749438,0.0,0.0001703919811771,0.0570570090768736,0.6554798616139199,2.4210059448442443,0.9442766484426156,1.9853731441659213,1.647430031293752,2.1692908175021386,0.7460039354656347
0,110.87901047369613,70.38181818181818,2.0681975431377624,0.9329364235414814,0.9400254245190064,0.0293853952137889,0.0132553612231416,70.0,1.4826,0.0211799999999999,3.0,68.0,72.2,0.0,0.0,67.0,74.0,1.8333333333333333,0.0,0.6646983521651525,2.8375846758207643,0.2342479355168106,5.925476838812676,4.268981059720954,1.479693414877249,48.45438094573306,0.8,0.875,1.0,0.4444444444444444,54.05405405405408,54.15791519266422,53.95078813847384,43.75,0.5106382978723404,0.4893617021276596,0.4758309514308864,0.4658123356840946,0.5367766712230684,0.4632233287769315,2.0789576690057494,1.9312746575603923,0.5354124251958788,0.4645875748041212,1.50805836821017,1.4047780847896372,1.7055280772918655,1.0441155340804933,0.714020236150195,1.2360780031904417,1.1052153858776452,-1.1487634594662937,0.0,0.0006308486228939,0.0880534104098818,0.6266448957745894,2.906284324989056,0.8765963553574505,2.0795587632486603,1.3722556269862594,1.7164478294318988,0.8409250492399505
0,108.26286533251796,72.09433962264151,2.371822983920533,1.0469736606781692,1.0555820165506602,0.0328988793896331,0.0145222727076532,72.0,2.9652,0.0411833333333333,4.0,70.0,74.0,0.0,0.0,68.0,76.0,1.4722222222222223,0.0,0.7464092020015423,3.2746051999723984,0.2279386846413832,7.6786664827941635,4.387144734002934,1.5922559147004296,57.46466783599013,0.5849056603773585,0.6896551724137931,0.9,0.1428571428571428,54.05405405405407,54.12704139415714,53.980170647125135,55.172413793103445,0.6666666666666669,0.3333333333333333,0.6103679378930738,0.4315953079030418,0.4983142857142857,0.5016857142857143,2.311588983243124,2.3193955221641898,0.5066532696067783,0.4933467303932219,1.6905609493684075,1.6682131305740306,1.4348374899890906,0.2874497167958516,1.4034777201918294,1.3727837139510974,1.0004195025322118,0.5372582180704257,-0.6067804365329432,5.187459042037788e-05,0.0068245743660875,0.5708131230508009,3.0786267702309207,0.8218009100105149,1.918455752919132,1.4162963120676542,1.7282746822142256,0.6484438250448905
0,106.48057088926718,73.3076923076923,2.1007791415349435,1.2524485821702989,1.2649110640673518,0.0286570082266046,0.0170848180149148,73.0,1.4826,0.0203095890410958,1.25,72.0,75.0,0.0,0.0,69.0,78.0,1.1304347826086956,0.0,0.8944271909999157,2.8634272622636163,0.3123624625592364,8.046018405285226,3.2014090035237825,1.6125511316477754,36.6680072733848,0.5769230769230769,0.6052631578947368,0.782608695652174,0.4444444444444444,50.0,49.99934188382152,50.00071237080799,52.63157894736842,0.5375000000000001,0.4625000000000001,0.6557438524302,0.6082762530298219,0.4934695228770674,0.5065304771229328,2.0114827994969406,2.0379285153317968,0.4973836841691529,0.502616315830847,1.4960051892744304,1.5038538216200503,1.7154941380511204,0.4293328523205311,1.3040435578248726,1.518709983985138,1.0357645441885666,-0.3619972546004497,0.0,0.0001947349919983,0.0190450247671378,0.563469813497333,2.8721574637809058,1.0354866604806732,1.7740433224462009,1.4764267015581618,2.413287379514407,0.9866145666013428
0,108.06876984177264,72.16981132075472,2.614573424955734,1.2480754415067656,1.252900104836714,0.0362280762150729,0.0172935943529042,72.0,1.4826,0.0205916666666666,2.0,71.0,73.0,0.0,0.0,67.0,80.0,1.261904761904762,0.0,0.8859341602793768,3.528247356941504,0.2510975197179365,9.81997416701372,3.982516438725967,1.699080455270314,56.20521239564394,0.6792452830188679,0.7714285714285715,0.925925925925926,0.625,57.14285714285716,56.96674324864552,57.31657904128503,48.57142857142857,0.6419753086419752,0.3580246913580246,0.7140055472954165,0.5332107702308685,0.4734445757038787,0.5265554242961212,2.4276920573849963,2.560242310070379,0.4835508051082732,0.5164491948917269,1.7893424276894043,1.849209886919912,1.6121434377770691,1.3620762186242898,0.4113025550322859,1.092340664344431,1.3224706717590131,-0.2669281125304712,0.0,0.003105553782161,0.2250331080991932,0.4855733048829278,2.911727701978146,0.8414274515827358,1.285629888030695,1.5144414744409795,1.7509348921148502,0.8645917667265206
0,106.24354103155444,73.34615384615384,2.488283252464382,1.1631599960755994,1.1732308333125645,0.0339252042811085,0.0158585002086867,73.5,3.7065,0.0504285714285714,4.0,71.0,75.80000000000001,0.0,0.0,68.0,79.0,1.181818181818182,0.0,0.8295994781324582,3.3387211359335494,0.2484782179630859,8.701587453683452,4.024497632820921,1.6465685993027772,53.74670123285498,0.6538461538461539,0.7586206896551725,0.9545454545454546,0.5454545454545454,46.34146341463416,46.53402053621205,46.14176484102816,48.27586206896552,0.4202898550724639,0.5797101449275364,0.5385164807134504,0.6324555320336758,0.4782523669098247,0.5217476330901752,2.308919068836321,2.411628403608944,0.4748736447319575,0.5251263552680427,1.676470588235294,1.7629452000974708,1.4026044877178554,0.152487150490538,1.3816912047413945,1.344900220867319,1.0,0.377316481517048,-0.7412726826865214,1.120966264507255e-05,0.001685906048127,0.4415433944966187,3.1510469290970824,0.9266385187678412,1.8073000915185309,1.4198005771043756,1.5029059411238148,0.6577430444008953
0,109.13039261748584,71.44444444444444,1.9099211350572471,0.9111469032188404,0.9167051493879416,0.0267329552340827,0.012753222595598,72.0,1.4826,0.0205916666666666,1.75,70.0,73.0,0.0,0.0,67.0,75.0,1.35,0.0,0.6482084274808406,2.6007981358414245,0.249234424828257,5.296283097080636,4.0122868287118925,1.4309413009353544,41.74059241829996,0.6666666666666666,0.7586206896551725,0.9090909090909092,0.6,44.117647058823536,44.287882144648016,43.9449087170258,58.620689655172406,0.4772727272727273,0.5227272727272727,0.4493585171364585,0.47026997156298,0.4387318754769612,0.5612681245230388,1.7226864570796052,1.948461524893613,0.4410005867650196,0.5589994132349804,1.2588827797552398,1.4173313233229183,1.5031898830023518,0.3986798961198623,1.2220165774884464,1.4213565255483775,1.2492672750558196,-0.0453527952813459,0.0,4.140340109693372e-05,0.0098650497620086,0.6583746250729661,2.746366765837969,0.947270935540176,1.7481255453701,1.5123638807446926,1.5734067150285325,0.9591479170272448
0,104.9861762333981,74.3529411764706,4.959127057907529,1.8055470085267789,1.8237660071894068,0.0666971202408449,0.0242834645134139,73.0,5.9304,0.0812383561643835,9.0,69.0,80.0,0.0,0.0,68.0,84.0,2.217391304347826,0.0,1.2895973109811434,6.963183062892067,0.1852022701878422,28.21056631772414,5.399501847281599,2.1573819145217623,150.39087924418263,0.6274509803921569,0.6944444444444444,0.88,0.1666666666666666,50.76923076923078,50.78755899263873,50.74880264524572,52.77777777777778,0.5828220858895704,0.4171779141104293,0.9845749108635872,0.8329931278350429,0.4971151733514043,0.5028848266485957,4.90948935371956,4.937897594428343,0.4999577586873451,0.5000422413126547,3.540654845462047,3.540953981915157,1.6463606039929584,0.2479017416388069,1.691890448100839,1.5679395772814355,1.0910596882157613,0.0592119990788733,-1.0,0.0001845350173039,0.0094654143006646,0.2479968657022015,3.782158126404672,0.7066118555634409,1.5377290709480669,1.3550937099321076,1.8318736605401784,0.4448961052526662
0,104.03894654737849,74.96078431372548,2.244645043776192,1.174734012447073,1.1864885595912067,0.0299442577118979,0.0156713143172379,75.0,1.4826,0.0197679999999999,2.5,73.0,77.0,0.0,0.0,70.0,79.0,1.108695652173913,0.0,0.8389741062872013,3.0772701923514445,0.2726358278101388,8.110806863037883,3.667896505137216,1.616034169935552,45.148434335555166,0.6274509803921569,0.5882352941176471,0.8,0.1538461538461538,51.11111111111112,51.08726676128714,51.134678215159134,50.0,0.536231884057971,0.4637681159420291,0.6144518047887589,0.5714285714285714,0.5099566819680611,0.490043318031939,2.1975171518450227,2.154184347747804,0.5117750897675072,0.488224910232493,1.6134795711537882,1.5759189091331018,1.6632708768759494,0.5698472483047521,1.7723518423870073,1.616654912964095,0.8933679144635001,0.7802029840894171,-0.7732257282738446,5.0323792604281394e-05,0.0184943031099905,0.4525430391342779,3.0946798129023136,1.076019919108976,2.2239731836831576,1.4238067628430675,2.062085179954218,1.0010162368184992
0,104.26202336492928,74.78846153846153,2.6886583757027966,1.3135791548583706,1.3260585856397975,0.0359501762757895,0.0175639280155914,75.0,1.4826,0.0197679999999999,2.0,73.0,77.0,0.0,0.0,69.0,79.0,1.238095238095238,0.0,0.9376650181565428,3.691537752806024,0.2540039086540024,10.874389908241218,3.9369472906898215,1.743375010814513,58.13355821755548,0.5769230769230769,0.6216216216216216,0.8260869565217391,0.25,48.07692307692307,48.13805222305624,48.01562585773173,54.054054054054056,0.5113636363636362,0.4886363636363637,0.6708203932499368,0.6557438524302001,0.5003901819720694,0.4996098180279306,2.6113296758344946,2.6092926827970584,0.5010558150924315,0.4989441849075684,1.906442062572829,1.902420603402185,1.5947436828450523,0.8058636869203801,1.877944681349544,1.4750128378893537,1.5625862211426336,0.2630978605803413,-1.0,0.0005138981044153,0.054246130902796,0.5153433829835161,3.1705608009992114,0.9708434314131476,1.948739359202712,1.4531263138940271,1.8054063334405424,0.7673668851343778
0,106.99077440477552,72.82692307692308,1.9273180984960283,0.9901475429766744,0.996857808414058,0.0264643625882739,0.0135958997187185,73.0,1.4826,0.0203095890410958,3.0,71.0,74.80000000000001,0.0,0.0,69.0,76.0,1.238095238095238,0.0,0.7048849162083405,2.6299183615152963,0.2680253982493215,5.823852366373302,3.730989699229115,1.4721804671180625,39.24879326650833,0.6538461538461539,0.8275862068965518,1.0,0.4,44.44444444444445,44.45167815431999,44.439608885679206,51.72413793103448,0.4,0.6000000000000001,0.4472135954999578,0.5477225575051661,0.5318031277828362,0.4681968722171639,1.9178635749295407,1.7995193514363137,0.5229172887429082,0.4770827112570917,1.3925158333106162,1.3300883234194958,1.3950151790721594,0.4662017002810348,1.5648347065726185,1.331733856432101,1.4318840378670394,0.0815568718450352,-1.0,1.6255179343965212e-05,0.0104762784163802,0.544553291294116,2.7700974788152246,0.9051390234271852,1.9309889553407835,1.4084632700303523,1.8372448944759816,0.5481192036674126
0,110.81819374449596,70.38888888888889,4.919796999442484,1.853095319769316,1.870440755862139,0.0698945114364362,0.0263265317725711,71.0,5.9304,0.0835267605633802,8.0,65.0,75.0,0.0,0.0,62.0,81.0,1.862068965517241,15.625,1.32260134227781,6.88836443478109,0.1920051348618638,28.62166851544096,5.208194045015722,2.163665057552121,143.50375451649987,0.5555555555555556,0.5365853658536586,0.7727272727272727,0.1538461538461538,51.42857142857142,51.391244672585856,51.460426215621865,53.65853658536586,0.6483516483516484,0.3516483516483516,1.0651832633943252,0.784464540552736,0.4436118561281617,0.556388143871838,4.587939561352889,5.1381295397965685,0.4508943318858935,0.5491056681141064,3.330450780543253,3.6753067751627695,1.7523544068735042,0.3182653479526727,1.5171080038456175,1.6688485006201794,1.0,0.6127156045673114,-0.0232264594600907,0.0002277307936651,0.0177587266505914,0.355506346135138,3.8634251783224016,0.7088766619881014,1.602399884737342,1.3072960158472349,1.9612367504895991,0.5328599539040249
0,108.54048172434248,71.87037037037037,2.740653387846239,1.2438528093471328,1.255177954759088,0.0381332859942532,0.0173068929927197,72.0,3.7065,0.0514791666666666,4.75,69.0,75.0,0.0,0.0,66.0,76.0,1.4594594594594594,0.0,0.8875448434060127,3.782407140113939,0.2346507952550229,10.546502319226937,4.2616518683142806,1.7300785624562969,64.47720982156737,0.6111111111111112,0.6216216216216216,0.9130434782608696,0.4,52.0,51.933960331744174,52.06555830963141,51.35135135135135,0.5609756097560976,0.4390243902439024,0.6650621717611762,0.588348405414552,0.5114375636742805,0.4885624363257194,2.7049832861619554,2.643798251601164,0.514025087690813,0.4859749123091868,1.9696753883220484,1.915179239826291,1.7642798782909537,0.1167846984607374,1.8129553194382315,1.7545629702078624,1.0959067796204485,0.093421715968966,-1.0,3.307169438866322e-05,0.0019108663391565,0.4727733968364598,3.1752733218718965,0.9459167175882184,1.9031163826630155,1.368721751634228,1.981006586876508,0.6394319446848298
0,105.6143953250785,73.8076923076923,1.495594334461388,0.9393364366277244,0.946821307446814,0.0202633937967671,0.0127268094592604,74.0,1.4826,0.0200351351351351,1.0,73.0,74.80000000000001,0.0,0.0,71.0,79.0,1.0196078431372548,0.0,0.669503767067555,1.9764297381399436,0.3387440262347186,4.157040709269734,2.952081579461099,1.325754387468881,23.3383272922482,0.6923076923076923,0.7741935483870968,0.9583333333333334,0.3333333333333333,45.71428571428573,45.7940711192962,45.63464985850351,54.83870967741935,0.4444444444444444,0.5555555555555556,0.4472135954999578,0.4999999999999999,0.4967845184454668,0.5032154815545334,1.393045836025772,1.4020334548559026,0.4913778267304581,0.5086221732695418,1.0345474134298394,1.0525440153587824,1.2872547065625437,0.7303820073798686,0.5999873259558477,0.965178329645782,1.0862292535463456,-0.7381237176490214,0.0,0.0003933022689887,0.0435885001865614,0.6073051231596649,2.379114522164392,0.9965729807382654,1.643871037702599,1.60131556218029,1.8133744417007067,1.0962384073348252
0,108.0126914605098,72.15094339622641,2.389047335196881,1.1519214716824566,1.1591006551669472,0.0331117962252705,0.0159654388073143,72.0,2.9652,0.0411833333333333,4.0,70.0,74.0,0.0,0.0,68.0,76.0,1.394736842105263,0.0,0.8196079333463183,3.2570552264452983,0.2516407848081919,8.38650767321846,3.973918618805093,1.6305512586331965,51.773089627389645,0.5283018867924528,0.5714285714285714,0.75,0.2307692307692307,44.44444444444445,44.300411241163935,44.58681842983967,54.285714285714285,0.4057971014492752,0.5942028985507246,0.5239368319955837,0.6340037731068525,0.4736006280495057,0.5263993719504941,2.2414613638679923,2.3631038281044,0.4695361546815059,0.5304638453184939,1.6276760810484574,1.7300607629091231,1.4107044910209232,0.5214436771017705,1.525441642465632,1.609902698857088,0.5407166835694674,-0.3425207131210497,-0.3380245842448444,0.0001456374143174,0.0219339002526376,0.5235059520695717,3.086371686505002,0.9539582342325668,1.941721152212565,1.5166953838715118,2.2526799312899017,0.6484438250448905
0,109.0096534358466,71.64150943396227,2.6609305748079466,1.278520779891897,1.2908484003786738,0.0371423019396421,0.0178460893690467,72.0,1.4826,0.0205916666666666,3.0,69.0,73.0,0.0,0.0,65.0,76.0,1.394736842105263,0.0,0.9127676573915676,3.6333412899299855,0.2512199060191112,10.418766622280083,3.980576284125853,1.724786420015336,57.85116868332216,0.6792452830188679,0.6666666666666666,0.9545454545454546,0.1538461538461538,51.06382978723404,51.110234149494936,51.01779296256866,48.48484848484848,0.4941176470588234,0.5058823529411766,0.6416889479197478,0.6492831643058214,0.5474476982621201,0.4525523017378799,2.688298633822281,2.444221631624137,0.5442810943808406,0.4557189056191594,1.954317559980094,1.7882656418930525,1.349405768134492,0.3440274990507075,1.3268155456449806,1.2825533618118403,1.0027356267928789,0.6330063442340657,-0.6286588541767015,8.702997352068049e-05,0.009948598152078,0.4866369558639416,3.1589785921477604,0.9388329640798864,1.785925512582399,1.4914285742785338,1.812050208390676,0.6484438250448905
0,114.50832253294212,68.19642857142857,6.24476404054452,1.257703534947001,1.2585064099313854,0.091570250398139,0.0184423665768609,69.5,8.1543,0.1173280575539568,12.25,60.0,74.0,0.0,0.0,58.0,77.0,2.24,0.0,0.8898984166292194,8.777880065891676,0.1013796508894111,24.540304624682346,9.86391244423241,2.096850059387718,346.336961663714,0.6428571428571429,0.6190476190476191,0.8461538461538461,0.3333333333333333,41.81818181818184,41.21599928817344,42.42412195996428,52.38095238095239,0.3563218390804597,0.6436781609195403,0.5357583756107197,0.7200822998230956,0.5118597706555772,0.4881402293444227,6.280079500353651,6.132844358078581,0.5102504757567041,0.4897495242432957,4.4568170013923165,4.366365676333969,1.788901907131312,0.5624485549997251,1.2530915415647566,1.5343158190646191,1.0532763788663395,-0.518389253557423,0.0,0.0002630399738025,0.0297626595044711,0.5438382240738919,4.034883833375794,0.4938842565481864,1.555886134204989,1.290599258914946,1.740362689494244,0.4148110658612574
0,118.52521776835246,65.89830508474576,4.681934890524603,1.0170952554312156,1.0165002888664507,0.0710478802831665,0.0154343158617391,67.0,5.9304,0.0885134328358208,9.5,60.0,70.0,0.0,0.0,58.0,74.0,1.903225806451613,0.0,0.7187742473355516,6.587399289635397,0.1091135083410641,14.87497929477612,9.16476809520437,1.8794264798466984,241.48794736008963,0.7288135593220338,0.823529411764706,0.9285714285714286,0.4444444444444444,59.52380952380951,59.85618787799007,59.17088051072405,35.294117647058826,0.5166666666666666,0.4833333333333335,0.5214689104456789,0.5043668951391246,0.584035679776172,0.415964320223828,5.034237246331981,4.248562668566007,0.5832283651562647,0.4167716348437352,3.5787899125904,3.025282690398121,1.6041988512974774,1.140829528653865,0.5735972596533383,1.144012023980271,1.2112664167505338,-1.003646561667142,0.0,0.0006000100957123,0.0988038857285124,0.3730254720263719,3.673512601435784,0.4700470845187393,1.341874909110029,1.357023627453548,1.37092338888679,0.2991174431878902
0,106.48870313836758,73.38461538461539,4.943420448588546,1.668626298932807,1.6777669566373972,0.0673631717312904,0.0227380942202583,74.0,5.9304,0.0801405405405405,8.0,68.0,78.0,0.0,0.0,65.0,83.0,2.0,0.0,1.1863603922890196,6.90754063665635,0.1717485939920994,25.74482595468088,5.822463967571116,2.1176600701305914,160.87562584585936,0.5769230769230769,0.5675675675675675,0.8571428571428571,0.3636363636363636,56.4516129032258,56.627917668801246,56.26309325139417,51.35135135135135,0.6549295774647887,0.3450704225352113,0.9643650760992954,0.7,0.4800063527149152,0.5199936472850847,4.785716203952662,4.981067964029776,0.4850617193530032,0.5149382806469969,3.452034152841993,3.556756813607288,1.785596849169824,0.3660236788714326,1.5802317969587385,1.725750023320668,1.0,0.5941147155456221,-0.1024349386066813,0.0005419436527174,0.0283692531361581,0.1632667171553121,4.003539122804026,0.6488277456010884,1.766313353661463,1.2565019154908164,1.5647553530153562,0.5481192036674126
0,111.2242303955691,69.96296296296296,3.0712480590326487,1.157420684759623,1.1683414615094971,0.0438981988321236,0.0165433342977817,70.0,3.7065,0.05295,5.0,67.0,72.4,0.0,0.0,65.0,77.0,1.8,0.0,0.8261421701747672,4.210576564706653,0.1962064238659258,10.928139564114195,5.096673086928757,1.7455163427430282,85.83972903117333,0.6296296296296297,0.7586206896551725,0.9090909090909092,0.4444444444444444,51.21951219512195,51.157552230744855,51.28244317881918,51.72413793103448,0.5492957746478873,0.4507042253521127,0.6123724356957945,0.554700196225229,0.4456305198458624,0.5543694801541378,2.8107940935272717,3.135026566242956,0.449474362323273,0.5505256376767269,2.034153808861045,2.2512312052232004,1.522589947379292,0.9839601215205328,0.8846433577260076,1.376623418486274,1.7731639456981243,-0.0186232553678022,0.0,0.0001442915280016,0.050321651290435,0.4300750556849686,3.348037599091174,0.7859059761405387,1.550193072425872,1.422206738613078,1.6179225064855705,0.4262879631232198
0,109.1754196216537,71.4074074074074,2.4068966829110563,1.0728203000626038,1.062625387461816,0.0337065406839203,0.0150239357373912,72.0,1.4826,0.0205916666666666,3.0,69.0,73.0,0.0,0.0,65.0,76.0,1.3846153846153846,0.0,0.7513896173352325,3.1665202522615554,0.2372919032488687,7.474761369043004,4.214218801014937,1.5805674423746994,53.37763672350084,0.7222222222222222,0.7428571428571428,0.9230769230769232,0.4545454545454545,37.2093023255814,37.06325124119133,37.34302033325329,60.0,0.360655737704918,0.6393442622950819,0.4599331055038999,0.6123724356957945,0.3820795683742069,0.6179204316257931,1.9573080274301955,2.489135551499737,0.3808956015265665,0.6191043984734333,1.421723105210917,1.812566659979696,1.4844902577771462,1.096605055824856,0.3878852019522902,0.9361877298647182,1.0025547694834789,-1.5529876678651986,0.0,0.0012770530672326,0.1176165502410653,0.5136119816798383,3.055893114755649,0.8638196834622126,1.7570413795289446,1.4443694702727885,1.522942694361601,0.8525759262464397
0,116.25423438702774,67.08771929824562,3.641431732527282,1.1338934190276817,1.1390358191920908,0.0542786633771064,0.016901653997013,66.0,4.4478,0.067390909090909,6.0,64.0,71.0,0.0,0.0,62.0,75.0,1.3902439024390243,0.0,0.8054199517651016,5.087736720297633,0.1583061380813716,12.873507364108775,6.316874456794505,1.8166669957441208,128.55437652537427,0.631578947368421,0.6756756756756757,0.88,0.1818181818181818,56.25,56.07425342238515,56.415305911443006,45.94594594594595,0.5972222222222222,0.4027777777777778,0.625227231419978,0.5134553180524705,0.4991782121623705,0.5008217878376298,3.594615478182969,3.600528363875551,0.5015962680489485,0.4984037319510516,2.579938906922184,2.571715464695571,1.664766825431318,1.254637592726506,0.6956985376587665,1.3230173340220197,1.5767678229544029,-0.1673502820871668,0.0,0.0008351013212501,0.1258900837861722,0.510410630734337,3.3740788921338214,0.6714847790519674,1.5901038224751147,1.433637070063822,1.7119137740655783,0.3069942112718285
0,108.6329249819656,71.77358490566037,1.9674418125885265,1.083086756948363,1.0921010787533256,0.0274117813005236,0.0150903254779871,72.0,2.9652,0.0411833333333333,4.0,70.0,74.0,0.0,0.0,68.0,75.0,1.358974358974359,0.0,0.7722320785276203,2.6806875932959224,0.2880723887628234,6.503451642274285,3.4713496989234987,1.5201140252700949,37.22241627958304,0.6415094339622641,0.7647058823529411,0.9230769230769232,0.1538461538461538,53.48837209302325,53.44321473573876,53.53194822608886,50.0,0.5737704918032788,0.4262295081967214,0.5857791861290059,0.5048781642974012,0.4671782762691855,0.5328217237308147,1.8322617874961409,1.9567582157569,0.4753675491074672,0.5246324508925329,1.36020596102585,1.4289514819818832,1.4422834503060769,0.305024939604966,1.1372585107011108,1.2897709805035935,0.984134471981888,-0.5949952632058928,0.0,0.0001356053680218,0.013029771110108,0.5727330817525522,2.7874638933022347,0.91202562532787,1.993170509851446,1.4930432196750585,2.506596814134705,0.6484438250448905
0,110.80432883451302,70.34545454545454,2.382172847370122,1.0540925533894598,1.0580627842174168,0.0338639200324002,0.01498451549145,71.0,2.9652,0.0417633802816901,4.5,68.0,73.0,0.0,0.0,66.0,74.0,1.9642857142857144,0.0,0.7481633696412542,3.262132651190361,0.2293479296031224,7.667396654850182,4.360187605488572,1.5916180410094318,56.894041412719154,0.8,0.861111111111111,0.967741935483871,0.4444444444444444,43.18181818181818,43.23065121209413,43.13544711197286,55.55555555555556,0.4166666666666666,0.5833333333333334,0.485642931178632,0.5746204653902286,0.4906422379826632,0.5093577620173366,2.284988841152812,2.328161383961471,0.4869060980172089,0.513093901982791,1.6518206713800143,1.6956597696788522,1.2397937338224665,0.4805124084168541,1.4312941221269684,1.1910379179185413,1.4245632803223511,0.1385101842475355,-1.0,5.821542427876739e-05,0.0138238947088336,0.5659649654704912,3.0598413623172003,0.8380279485949109,2.0310341057533017,1.648260354250363,1.7463099812477785,0.7358094180849567
0,118.36364828009148,65.89655172413794,1.9707479671204169,1.0841764600337107,1.0936705574443115,0.0299066933785934,0.0164527039984184,66.0,1.4826,0.0224636363636363,2.75,64.0,67.0,0.0,0.0,62.0,71.0,1.0545454545454545,0.0,0.7733418675529443,2.6992642643732205,0.2865009839014474,6.557930362313736,3.4903894094269043,1.5237369106111711,37.68593360645117,0.6551724137931034,0.7647058823529411,0.9615384615384616,0.3,51.11111111111112,51.104611885126495,51.116773129847815,47.05882352941176,0.4925373134328359,0.5074626865671641,0.5428101483418094,0.5509731650193397,0.5621203274773336,0.4378796725226661,2.023764858636371,1.7861700271449013,0.5568407389243777,0.4431592610756221,1.4815983025426205,1.3217365082425176,1.5104907478169272,0.5011029817011077,1.1230254208362238,1.3735769116867775,1.2213643251016109,-0.1159422443858639,0.0,0.000149127387325,0.0193643073935615,0.5683675068012097,2.9457295212591577,0.9965502772281308,2.0601164054104752,1.4347147081777902,2.190374258128762,1.110996395627643
0,118.51286718724336,65.8103448275862,2.59862917000837,1.1239029738980326,1.1316809419557994,0.0394866365890713,0.0170779073843557,65.0,1.4826,0.0228092307692307,3.0,64.0,68.0,0.0,0.0,62.0,72.0,1.1372549019607845,0.0,0.8002192681965252,3.5758869415218326,0.223782038213984,8.989647371008447,4.468633890284723,1.6607127663414278,63.91731829884419,0.5689655172413793,0.5750000000000001,0.8260869565217391,0.1538461538461538,54.0,53.88984735909111,54.10811631689645,47.5,0.5694444444444445,0.4305555555555555,0.6050383695034791,0.5261042808091512,0.4651467518757693,0.5348532481242307,2.438814540115368,2.61517706044318,0.470139260627074,0.5298607393729263,1.7767790787897018,1.8862577729136,1.8003238257448206,0.8831483843387291,0.9651683919406748,1.4067425841100394,1.0959859010691666,-0.7756780873155069,0.0,0.0006555184891365,0.0731716130768973,0.4699482869290308,3.1871212464968037,0.9165326311684332,2.036106335516365,1.353608692004654,2.1027028627844264,0.7069977063085001
0,111.50470115436616,69.96363636363637,3.943882446804007,1.3333333333333333,1.3375196335347177,0.0563704611679366,0.019057519057519,69.0,4.4478,0.0644608695652173,6.5,66.0,74.2,0.0,0.0,65.0,79.0,1.6176470588235294,0.0,0.945769202842545,5.479649154530198,0.1725966710953835,16.28125181680505,5.79385450283315,1.918657903403804,126.9931597116826,0.6,0.6857142857142857,0.9166666666666666,0.25,57.40740740740742,57.27457351779526,57.52973211450698,45.71428571428572,0.5937499999999999,0.4062499999999999,0.7333047450116518,0.6065678266293776,0.5201997869215335,0.4798002130784667,3.95219020777919,3.795622138500856,0.5223532542121012,0.4776467457878987,2.842318005389468,2.7179654106132127,1.4487560308332528,0.8074655090694565,0.8291719278070744,1.2329046823418026,1.4073511641994294,-0.0072469744665184,0.0,0.0003870309482128,0.0545103759449707,0.3239649763940817,3.5295693238525816,0.7211593497377675,1.5334492917891178,1.4921543977805585,1.6635355562918666,0.6306937869299629
0,103.190521938322,75.56862745098039,2.2472641318793327,1.3564659966250536,1.3702375780893483,0.0297380567529439,0.0179501208686761,76.0,1.4826,0.0195078947368421,3.0,74.0,78.0,0.0,0.0,71.0,79.0,1.0851063829787233,0.0,0.9689042833036096,3.0594117081556704,0.3166962722672268,9.312551187020569,3.1575995285356715,1.6760387828515075,38.64158786907544,0.7058823529411765,0.6944444444444444,0.88,0.2727272727272727,50.0,50.00107071129999,49.99896508840161,47.22222222222222,0.4565217391304347,0.5434782608695652,0.6546536707079771,0.7142857142857142,0.5111355311355311,0.4888644688644688,2.187287948905807,2.1391052869298948,0.5061572606214333,0.4938427393785669,1.6144348856488453,1.5946748117099112,1.477549128571047,0.3910378786794819,1.086511249891565,1.282030189231306,0.9969651662164998,-0.5769953345034657,0.0,0.0001649613439941,0.0149794383143092,0.5450539948105417,2.9675592277969725,1.1759262378104949,2.0481509874751684,1.5391311925219415,2.491389730809156,0.778568184192166
0,107.00695650841472,72.82692307692308,4.544857701114369,2.048433164975745,2.0593164675992592,0.0624062847789667,0.0281274160493104,72.0,4.4478,0.061775,6.25,69.0,76.0,0.0,0.0,65.0,85.0,1.793103448275862,0.0,1.4561566388485632,6.242579909105579,0.2332619942476951,28.55762441804313,4.287024996185725,2.16269218753913,107.04838444408972,0.4807692307692308,0.4499999999999999,0.7222222222222222,0.1538461538461538,43.42105263157895,43.24796099978742,43.604816745581104,57.49999999999999,0.4065420560747662,0.5934579439252337,0.9327379053088812,1.1269427669584644,0.5043620559733057,0.4956379440266944,4.433383631805276,4.394873547078423,0.4992699665003846,0.5007300334996156,3.203505144896676,3.208185896640785,1.674233968290651,0.302979411472144,1.4228835044728507,1.5300257801262758,1.0,0.7617901784965122,-0.1463711011489778,0.0004117706824754,0.019769523515751,0.2350973216027134,3.917685402674984,0.8016698987504496,1.785919484260396,1.4530530988678594,1.8848646339813704,0.7673668851343778
0,108.43276312410131,72.01886792452831,3.3996072512850417,2.0143714423343844,2.033931618332902,0.0472043972538923,0.0279700514654761,72.0,4.4478,0.061775,6.0,69.0,75.6,0.0,0.0,67.0,81.0,1.65625,0.0,1.4382068397929235,4.546786278244247,0.3163128310372861,20.54356276157811,3.1614272387265965,2.0196458731527964,57.49733595483875,0.5660377358490566,0.5384615384615384,0.8571428571428571,0.1538461538461538,50.66666666666666,50.7234657644776,50.61272922613336,46.15384615384615,0.4834123222748814,0.5165876777251184,1.0,1.033744383772116,0.5473364619074647,0.4526635380925354,3.363812119153908,3.059090303842543,0.541521852255502,0.4584781477444981,2.481454409511356,2.2832718780342227,1.540844841132306,1.0792001552824493,1.832019253663768,1.6898195566694605,0.7062894232385402,0.6181441392525615,-0.6317639701016265,0.0006239889927583,0.0933967560040788,0.2300572055172969,3.45962027560675,1.036995415304947,2.0842289915264574,1.431675474721789,1.7384817106260697,0.6484438250448905
0,110.8101345863141,70.43636363636364,3.5159090092913607,1.8609038027160247,1.873814556543168,0.0499161062238061,0.0264196461407799,70.0,2.9652,0.0423599999999999,4.0,67.8,72.0,0.0,0.0,65.0,82.0,1.8333333333333333,0.0,1.3249869796177371,4.725316534603926,0.2804017402675008,19.66945782924111,3.5663116749775114,2.000762499112752,67.40780610128903,0.7090909090909091,0.7027027027027026,0.9230769230769232,0.4,55.223880597014926,55.00610631966695,55.43822464025786,43.24324324324324,0.6256684491978609,0.3743315508021391,1.0506062939587122,0.812636055372001,0.4885799643739225,0.5114200356260775,3.3029251553550942,3.379245739854351,0.4986180300250653,0.5013819699749348,2.4508251841760496,2.4576085051136958,1.3309298371946436,0.7944894364300672,1.273345870220762,1.1983574424275474,1.0278009325548427,1.2689847630454891,-0.5943856826217416,0.0009134454185747,0.0715289084928231,0.4088365886927207,3.274263069671373,0.9070135462506947,1.650628092484584,1.4951966975364044,1.8279756020032767,0.8409250492399505
0,102.98007117652672,75.74,4.054777982799541,2.118913853455904,2.1404748662531,0.0535354896065426,0.0279761533331912,76.0,3.7065,0.0487697368421052,4.75,72.8,79.2,0.0,0.0,66.0,85.0,1.5151515151515151,0.0,1.513544292886935,5.586670238499987,0.2709206429361973,26.56427972469784,3.691117772208681,2.1312681547198755,82.48423121918644,0.5,0.4499999999999999,0.7777777777777778,0.1666666666666666,51.24999999999999,51.266035539317286,51.2303485060193,42.5,0.4590909090909091,0.5409090909090907,1.0257111354242645,1.1133657679906157,0.5870222952956247,0.4129777047043753,4.2803603786993945,3.5901809678903174,0.5782714364966269,0.421728563503373,3.112359900852804,2.657911089138912,1.6444168142159934,0.2136007530345587,1.430816061181435,1.537616437698714,0.980297847209441,-0.1885133848662392,0.0,0.0003142026475846,0.0122166360179243,0.2264821422659357,3.697014811252441,1.062975031573304,1.878558161096057,1.41173821439364,2.0400706971605427,1.0158941141594504
0,105.3771415052543,74.03846153846153,2.2048212631443103,1.3357820651177332,1.3477650345053822,0.0297794040736374,0.0180417317886031,74.0,1.4826,0.0200351351351351,2.0,72.2,76.0,0.0,0.0,69.0,78.0,1.1063829787234043,0.0,0.953013795344877,2.9417881716838195,0.3239573143022705,8.807658298675328,3.0868264300615333,1.6518305673925202,36.32315791998404,0.6923076923076923,0.7058823529411764,0.9583333333333334,0.3333333333333333,52.94117647058823,53.04830030911404,52.836129822185626,50.0,0.5604395604395604,0.4395604395604394,0.714142842854285,0.6324555320336758,0.509957857531267,0.4900421424687331,2.100770166895381,2.0593402712862137,0.5147610554154621,0.4852389445845378,1.5689543164346191,1.523299437559992,1.607058942124774,0.2186439764426619,1.388414965682112,1.497736953903443,1.0002612691551651,-0.3286627441093672,0.0,4.332703637399707e-05,0.0044737594684647,0.4921056236964376,2.963044577884137,1.1473643111817184,1.983054234004304,1.5669601179408537,1.890808447323832,0.8769907258678603
0,102.44720336727596,76.22,5.207098765245422,1.83503322552359,1.853934958387692,0.068316698573149,0.0240754818357857,75.5,4.4478,0.0589112582781456,5.75,71.8,80.0,0.0,0.0,68.0,89.0,1.6129032258064515,0.0,1.3109299809547366,7.25817624813421,0.1806142391887665,29.892131107856343,5.536662028927095,2.18252698837978,160.7442753292208,0.42,0.3947368421052631,0.6666666666666666,0.0,50.724637681159415,50.77478251464797,50.67522159792159,55.26315789473685,0.6000000000000001,0.4,1.0155048005794949,0.8291561975888498,0.4333053908212843,0.566694609178716,4.777762483805472,5.463891296257692,0.4385720641906864,0.5614279358093136,3.453857578973041,3.907787615603013,1.882822194101563,0.5622526995039587,1.90997692399783,1.9349766388130205,0.4117854787697883,0.0403556154076092,-0.4555365143871321,0.0001026081121484,0.01299653111067,0.5483627977195291,3.9562453816226486,0.7095445292689307,1.6823089728562115,1.298480606467368,1.5273507186435624,0.7901398665684615
0,109.6390098092724,71.12962962962963,2.754387897596538,1.3388251678948522,1.3482774044540662,0.0387234955663142,0.0188223272757932,71.0,2.9652,0.0417633802816901,3.75,69.0,73.4,0.0,0.0,65.0,76.0,1.8,0.0,0.9533760956100674,3.780967922703244,0.2521513313787758,11.324450141936206,3.965872377242472,1.7609872340135204,59.97934497555458,0.4814814814814814,0.4358974358974359,0.7647058823529411,0.0,45.61403508771931,45.58308502757994,45.64832356939404,53.84615384615385,0.4421052631578947,0.5578947368421052,0.6354889093022424,0.713873507433484,0.4434139454741452,0.5565860545258547,2.51772137329513,2.8207795941838083,0.4433353461700248,0.5566646538299751,1.8361327658142357,2.057475747558055,1.6994435705343596,0.3257656985110433,1.773742973542563,1.7762766423308198,0.8197318807691243,0.0194524527830903,-0.4922224199790298,4.192497550628109e-05,0.0077182236888907,0.3752515591073848,3.2940212459730915,1.0350196311699669,2.0931139328006814,1.4168721648475382,1.9785354843366816,0.7460039354656347
0,109.1990061886798,71.55555555555556,3.9604967606595727,1.4406497485902698,1.4419085078942706,0.0553485572141865,0.0201333039399261,70.0,2.9652,0.0423599999999999,6.0,68.0,76.4,0.0,0.0,66.0,80.0,1.7419354838709675,0.0,1.0195832837826149,5.465653410054365,0.186543713493987,17.507118357685037,5.360673813498591,1.950184777784448,117.19834043575082,0.7037037037037037,0.7435897435897436,0.9310344827586208,0.3333333333333333,58.62068965517242,58.51836232040597,58.71269364804903,41.02564102564102,0.5272727272727272,0.4727272727272727,0.7467879938056768,0.7071067811865475,0.5798854279653025,0.4201145720346975,4.162106476636959,3.542631349149326,0.5780863286231767,0.4219136713768234,2.9900520589578057,2.5544311378441558,1.3533408773717668,0.2867676062605553,1.2305004308755825,1.37388423400586,1.365008456341756,-0.2301802052873807,0.0,0.0002488084263136,0.0074431589065986,0.383725325405126,3.4662984479880263,0.6892040697602161,1.7024247203708596,1.5417691875620971,1.657911142087304,0.4262879631232198
0,98.53723264461762,79.0625,3.7891572632918575,2.786746749672189,2.8148213516035274,0.0479260997728614,0.0352473897191739,78.5,3.7065,0.0472165605095541,5.0,76.0,82.6,0.0,0.0,72.0,89.0,2.0,0.0,1.9903792655475367,4.957404128087269,0.4014962698462696,30.99845407185198,2.490683164710082,2.198310145576539,49.389292009964905,0.5,0.4883720930232558,0.7619047619047619,0.1666666666666666,47.52475247524752,47.621797096498206,47.42836993979822,48.837209302325576,0.4657534246575342,0.5342465753424657,1.3593476696403026,1.4558726652394105,0.5114948397257623,0.4885051602742374,3.5454792859159245,3.464885614608048,0.5051369753793752,0.4948630246206248,2.6849813271059646,2.6575362217389524,1.4030959300589632,0.3996639659467602,1.457553009485726,1.2577210265123455,1.1089141588535254,0.0783478705673061,-1.0,0.0009267664900083,0.0343638326873538,0.1076092328267841,3.6883882832282935,1.243998538122857,2.223195416640987,1.6508984889986282,2.138998884188436,0.930827083453526
0,100.66436465074284,77.34693877551021,3.5563969384298866,2.240721609958125,2.259632650744819,0.0459798021063494,0.0289697516854744,77.0,4.4478,0.0577636363636363,5.0,74.0,80.0,0.0,0.0,71.0,86.0,1.4411764705882353,0.0,1.5978015703321948,4.7241035398601445,0.3382232325880599,23.713307006877365,2.956627172971152,2.0819622339394765,55.86965157551885,0.5306122448979592,0.5365853658536586,0.7727272727272727,0.0769230769230769,45.78313253012048,45.92963210690149,45.63713051604455,36.58536585365854,0.2821576763485477,0.7178423236514523,0.8505317485662418,1.356622840702195,0.6004869283479816,0.3995130716520184,3.660759403217409,2.985966317136626,0.5676850899227707,0.4323149100772293,2.657495405787546,2.3190968478040497,1.2141929485450014,1.3732754696000136,1.406292108057376,1.5390953019794402,-0.5329014526756453,-0.5968012370667619,-0.4032945706364761,0.000116270430416,0.0865246030746624,0.3531723292427764,3.573622732516335,1.1419308936293762,1.8026720715303857,1.6487842505361037,1.918991860629592,0.9166873214881972
0,99.51524433230286,78.40816326530613,3.187987657774485,2.4579802006254377,2.480777160316689,0.0406588743443388,0.0313485241620631,78.0,4.4478,0.0570230769230769,5.0,75.0,82.0,0.0,0.0,73.0,84.0,1.8148148148148149,0.0,1.754174352672638,4.1564058054836455,0.4220411660378093,22.905541988316514,2.369437108204779,2.0669106824218653,39.3933686090829,0.5918367346938775,0.5789473684210527,0.8181818181818182,0.1818181818181818,53.33333333333334,53.32984943414003,53.33428855308235,39.47368421052632,0.4896551724137932,0.5103448275862069,1.2290802650243555,1.254778101939296,0.5451112707617041,0.4548887292382956,3.0687430335801285,2.803306157684456,0.5367084657697276,0.4632915342302724,2.337501027167572,2.171749697688245,0.7765784459447478,0.474691368311922,0.8539451638671522,1.0139241301007087,-0.0251055157367225,-1.0228664815272346,-0.1629831993733798,6.9576187984916e-05,0.0145291447373972,0.2774299346678774,3.4362390607641053,1.2010846335096974,1.9997400900098048,1.8381922037295964,2.668261147269004,0.8021014063021725
1,101.5029723385028,76.74,2.655836852623877,2.0152479970951265,2.036027544819889,0.0346082467112832,0.0262607244865145,77.0,2.9652,0.0385090909090909,3.0,75.0,79.0,0.0,0.0,71.0,83.0,1.3157894736842106,0.0,1.4396888836247408,3.5092806984349614,0.4102518457035371,15.872181890506916,2.4375271201647104,1.90760674168664,34.2158674988231,0.54,0.5348837209302325,0.8260869565217391,0.0714285714285714,49.38271604938272,49.38553683384146,49.3803658994031,41.86046511627907,0.3819095477386935,0.6180904522613068,0.8897565210026092,1.131923142267177,0.5100835984316047,0.4899164015683954,2.5063330862753657,2.4562869297070247,0.4916171873515884,0.5083828126484118,1.8806079078352915,1.912406269735796,1.2963599103164096,0.6859349953695242,1.4317859370480597,1.2588783152030367,0.6984254798920766,0.6602504363712001,-0.75207581332379,0.0001246077989583,0.0266362032730068,0.3497381515663598,3.2799197518069736,1.260646349017243,2.0399827185896937,1.718945467517429,3.018949561721581,1.0158941141594504
1,108.34051293319604,71.94339622641509,3.779576158266868,1.6927446988204145,1.7038462389644151,0.0525354147359412,0.0235288405553322,72.0,5.9304,0.0823666666666666,7.0,68.0,76.0,0.0,0.0,67.0,80.0,2.0384615384615383,0.0,1.2048012296709325,5.213593874284116,0.2310884312668802,19.73342514129619,4.327347736612209,2.0021725824852634,90.24413460599456,0.6037735849056604,0.6774193548387096,0.8571428571428571,0.3333333333333333,44.0677966101695,43.89906358201854,44.240205995758345,48.38709677419355,0.3355704697986578,0.6644295302013423,0.7001400420140048,0.985184366143778,0.5512255612058969,0.448774438794103,3.8708101560355233,3.492619335384991,0.5402269655843928,0.4597730344156073,2.781489469915276,2.566025921264165,1.0835919140113648,0.3914273570060749,1.0841182556351765,1.2460551496564354,0.771678995387747,-0.1618201188963195,-0.0862913229676331,0.0002116420959831,0.0171184632268949,0.3639230296530367,3.1594459947621005,0.8502915823798428,1.2987693299178409,1.7282217790973329,2.02301315112658,0.3242219125224452
1,110.67052352157442,70.55555555555556,2.646939611735806,1.2053340568818445,1.2167195182402408,0.037515679536413,0.0170834748219473,70.0,2.9652,0.0423599999999999,4.0,68.0,73.0,0.0,0.0,67.0,76.0,1.7419354838709675,0.0,0.8603506221497035,3.656018756720487,0.2353244552064205,9.881747782471583,4.249452098477508,1.7018038749089652,62.144306311276,0.6666666666666666,0.7575757575757576,0.92,0.25,48.93617021276597,48.899920734560666,48.97261011568833,45.45454545454545,0.4285714285714286,0.5714285714285713,0.563300712149108,0.6504436355879908,0.5607230331271954,0.4392769668728048,2.737679558786305,2.4231351144531,0.5537871855740221,0.4462128144259778,1.9763852178793573,1.7740716876683087,1.399300095619435,0.2028640942845216,1.4755161329667554,1.3740840858244945,1.158188953225619,0.0912530650592389,-1.0,2.03655680404958e-05,0.0031965869981336,0.5386653768471938,3.0911060624073365,0.9244435697495064,1.7831295801612643,1.5083706994429622,1.921678246481292,0.4262879631232198
1,110.7738155256532,70.45454545454545,2.904773732618504,1.4076510510355476,1.4197616949475187,0.0412290465274884,0.0199795633050206,71.0,4.4478,0.0626450704225352,4.0,67.8,73.0,0.0,0.0,66.0,77.0,1.896551724137931,0.0,1.003923122166297,3.992327547344157,0.251463115253192,12.59147173872591,3.976726363996266,1.807046605014199,63.50557684492824,0.5454545454545454,0.4736842105263157,0.7222222222222222,0.2142857142857142,52.54237288135592,52.47097541875064,52.612700085405095,42.10526315789473,0.4579439252336448,0.5420560747663552,0.6799001036500849,0.7397092748646286,0.5268817204301076,0.4731182795698924,2.8978955712962406,2.7460663690349243,0.5227757676964467,0.4772242323035532,2.1047639883228904,2.010976170229947,1.586749076823509,0.5230690600597785,1.7775910870994958,1.8482836068533983,0.315983485660114,-0.6766158180550801,-0.364850504165122,0.0003148134907046,0.0282220987741418,0.4088365886927212,3.353909258900533,1.0120573166492877,1.9540447996189363,1.468586790023335,2.342044284838505,0.8409250492399505
1,106.49288094965544,73.23076923076923,2.6687397673249,1.5965649400644926,1.61245154965971,0.0364428749739744,0.0218018321647462,73.0,2.9652,0.0406191780821917,4.0,71.0,75.0,0.0,0.0,69.0,80.0,1.3,0.0,1.1401754250991378,3.5782019802918765,0.3186447918197543,12.81700047988526,3.1382907415152834,1.814756510538298,44.91775258408659,0.6730769230769231,0.6842105263157895,0.8846153846153846,0.3076923076923077,50.0,50.00017149862963,49.99974522011066,52.63157894736842,0.5000000000000001,0.5000000000000001,0.8062257748298549,0.8062257748298549,0.4580133073168622,0.5419866926831378,2.4216083191158457,2.6342631912080527,0.4618834520795304,0.5381165479204695,1.8047419277020011,1.9479916016956584,1.3172347409113423,0.4268456620088678,1.3498926154476534,1.2774372048362193,1.0123965080943074,0.5974419927976045,-0.6697461566563345,0.0002993773395936,0.0209364442900133,0.3688339540872221,3.302972593133431,1.1393506284740518,2.0788842500092803,1.61138512954846,1.865832950731131,0.7673668851343778
1,106.02446356534372,73.67307692307692,2.5027134595541463,1.4280110945908333,1.441676583894259,0.0339705298608237,0.0193830793314339,73.0,2.9652,0.0406191780821917,4.0,71.0,76.0,0.0,0.0,69.0,79.0,1.1063829787234043,0.0,1.0194192887494868,3.403458448661406,0.2995245289832842,10.899916532971078,3.338624730984245,1.744393282268573,45.45148219031297,0.6346153846153846,0.6896551724137931,0.95,0.25,52.083333333333336,52.12971897804364,52.0359346067636,44.82758620689656,0.4903846153846155,0.5096153846153847,0.714142842854285,0.7280109889280517,0.5583903884527607,0.4416096115472391,2.54325214791795,2.261724546419265,0.5527876761142481,0.4472123238857519,1.8679041045901243,1.680088974411092,1.4269556838158923,0.3101702147050043,1.346868228289389,1.3435245860919172,1.0,0.5737462951282026,-0.5107800234805002,0.0001854225011894,0.0123513812387094,0.4887695841173283,3.0722033623642,1.0893007725944384,1.8895320327616123,1.387691232298346,1.8372448944759816,0.6577430444008953
1,106.83588095180008,72.98076923076923,3.226668193659811,1.1631599960755994,1.1732308333125645,0.0442125813096996,0.0159378971794285,74.0,2.9652,0.0400702702702702,4.25,69.2,76.0,0.0,0.0,67.0,78.0,1.3,0.0,0.8295994781324582,4.5221459420908365,0.1834526104986538,11.785904479985998,5.450999019756866,1.7783330269531377,98.60085239013854,0.6346153846153846,0.6285714285714286,0.9090909090909092,0.1818181818181818,46.66666666666666,46.6281279294008,46.70925635963317,54.285714285714285,0.4782608695652173,0.5217391304347827,0.5744562646538027,0.6,0.4914709435656443,0.5085290564343558,3.170249900097111,3.224797589384934,0.4910397687499217,0.5089602312500784,2.2782103095484563,2.3194093528852213,1.542128115829258,0.6323107642736547,1.705243338456027,1.3890879563191998,1.3342933409566389,0.1731535740110894,-1.0,0.0004168599568023,0.0415160883162262,0.4036909938959323,3.298326921591389,0.787054163195356,1.844661684182173,1.5142792413080883,1.898448330097356,0.5481192036674126
1,105.5579240830952,73.86538461538461,1.7038462389644151,1.0936537072458306,1.1043585663801658,0.023066910811286,0.0148060382131692,74.0,1.4826,0.0200351351351351,2.0,72.2,75.0,0.0,0.0,71.0,77.0,1.0,0.0,0.7808994311488692,2.299104685076602,0.3396537079053671,5.640319759630024,2.9441751310973934,1.4582738355597418,27.075867350368146,0.6538461538461539,0.71875,0.9130434782608696,0.3076923076923077,48.78048780487806,48.78839722741304,48.772999685298615,46.875,0.4262295081967214,0.5737704918032789,0.5099019513592784,0.5916079783099616,0.5093446014061088,0.4906553985938912,1.640833824656966,1.610449227017967,0.5007453445311079,0.4992546554688922,1.2149764689364166,1.2131666647255783,1.3227055226591444,0.5890679589672971,0.7381465891608006,1.0326805686444491,1.0090180509379063,-0.7811693578126553,0.0,0.0002643869551451,0.030633526082582,0.681760246596613,2.666392232399126,1.1845730585515253,2.199362358777496,1.5814250339012312,2.4504257967119547,0.8769907258678603
1,106.65317988481866,73.17307692307692,3.06607722710865,1.321021589231488,1.332843047112185,0.0419017124335479,0.0180533830854237,73.0,2.9652,0.0406191780821917,5.0,71.0,76.0,0.0,0.0,68.0,79.0,1.2682926829268293,0.0,0.9424623568703668,4.263709146538317,0.2210428348836944,12.624129961631304,4.524010020619612,1.8081715667815728,77.15625161578737,0.4807692307692308,0.425,0.5882352941176471,0.0833333333333333,47.27272727272727,47.24694997969296,47.30153390434623,55.00000000000001,0.49438202247191,0.5056179775280899,0.6633249580710798,0.6708203932499369,0.4709358148419321,0.529064185158068,2.925960312855066,3.1012855292397035,0.4720300981692584,0.5279699018307414,2.1214669161223,2.2436546006317,1.6781172211323343,0.3094244333673244,1.4277349741066865,1.523405004448672,0.9869566913987268,0.9158083956542944,-0.1908129416256741,0.0001824106822374,0.0136734902743994,0.3506189941916249,3.4004431535934505,0.9205699088802958,1.9566693242587772,1.3908841878962424,2.2909373585661053,0.7673668851343778
1,103.92382461817496,75.13725490196079,2.6231249138623745,1.6852299546352716,1.7004201161561725,0.0349111092398176,0.0224286867657617,75.0,2.9652,0.0395359999999999,3.0,73.0,78.0,0.0,0.0,69.0,80.0,1.1333333333333333,0.0,1.2023785950000463,3.423090857749493,0.3512552383113046,12.930327818099451,2.846932631688575,1.8185796454985597,38.981236256647456,0.6274509803921569,0.6,0.8333333333333334,0.3076923076923077,52.94117647058824,53.13257036562236,52.759854829988285,40.0,0.4647887323943662,0.5352112676056338,0.8206518066482897,0.8806305718527108,0.659967953183782,0.3400320468162183,2.780864643103887,1.996081876362504,0.6384884369768742,0.3615115630231257,2.050204569185769,1.54270105030503,1.324299926189293,0.6468482460374032,1.7909035550783603,1.4674794320596587,2.135287305764365,1.1414835824750038,-1.0,0.0003198099452595,0.0361163052545712,0.3045803090132177,3.1848170784299623,1.1673186717862576,2.2997954021290963,1.66055299694693,1.8714137097572976,1.1122402631316657
1,104.24536495663972,74.84313725490196,3.348865772285344,1.407124727947029,1.4178166600913722,0.0447451282123533,0.0188009853616186,75.0,4.4478,0.059304,5.0,71.0,77.0,0.0,0.0,69.0,82.0,1.3421052631578947,0.0,1.0025477748298717,4.649445874378527,0.2156273676298851,14.643879495651948,4.63763023679098,1.87262625638074,86.24964308536373,0.6470588235294118,0.6944444444444444,0.88,0.1666666666666666,45.28301886792453,45.246178624120745,45.32689753653364,50.0,0.4040404040404041,0.5959595959595961,0.6388765649999398,0.7759128922285867,0.4899929195185273,0.5100070804814726,3.2545885974690423,3.3203915431767976,0.4861555806087939,0.5138444193912063,2.345262267218917,2.4111243037560843,1.4873968872841736,0.5161016009535802,0.9712952863305936,1.2293460868073836,1.0308441807864712,-0.3318510872062541,0.0,0.0006330918634902,0.0377638615693604,0.3300428585031763,3.5216295680163783,0.8167996499211494,1.7895302252240195,1.4762660497386582,1.9355214594142325,0.6673441578789994
1,103.01830936682856,75.74509803921569,5.059024163828049,1.6792855623746663,1.6933242273042426,0.0667901196881259,0.0221702209891555,77.0,5.9304,0.0770181818181818,8.5,70.0,80.0,0.0,0.0,67.0,84.0,2.55,0.0,1.1973610438743003,7.104482632070245,0.1685359942283918,26.724368641226484,5.933450623282576,2.133877563828749,168.61638760542974,0.5294117647058824,0.5277777777777778,0.7894736842105263,0.0666666666666666,53.96825396825397,54.057228083819474,53.866793603861126,44.44444444444444,0.5106382978723404,0.4893617021276598,0.857142857142857,0.8390957231764807,0.5414730653684887,0.4585269346315114,5.2278231314647154,4.8107731993423055,0.5406184667277323,0.4593815332722676,3.745986423589157,3.4530870542286696,1.6057778692304858,0.3512614991299887,1.8114463481516827,1.6358155985866882,1.5087160289955044,0.4766256972279752,-1.0,5.098888675297666e-05,0.0086720994128764,0.5512756571940525,3.708602245531866,0.7395543800083341,1.6649200751740787,1.4668178119502835,1.7357493156967576,0.4448961052526662
1,99.67998906781357,78.26530612244898,2.539484119233025,1.773649721149397,1.7893251233811929,0.0324471243396136,0.0226620172976063,78.0,1.4826,0.0190076923076923,3.0,77.0,80.0,0.0,0.0,72.0,84.0,1.6896551724137931,0.0,1.265243928490297,3.2686657112520527,0.3870826937532406,12.992557331499803,2.5834273041343585,1.8206647518468413,33.777440986145216,0.7346938775510204,0.7419354838709677,0.9565217391304348,0.5,45.90163934426229,45.68409405462888,46.11033111809496,51.61290322580645,0.4238410596026491,0.5761589403973509,0.8251369970070347,0.9620456927265028,0.4855136442840249,0.5144863557159749,2.277567342290939,2.344538874330021,0.4774530024344062,0.5225469975655938,1.7129162359117271,1.7919813682260062,1.1841361964355657,0.2618578350776195,1.1841361964355657,1.218285855336792,0.5688837658410222,-0.097306914015415,-0.3695870265210753,4.7966703598845474e-05,0.0031438093683818,0.373745350870271,3.070687257602187,1.2902688791266843,1.9467787437581423,1.6653448979060566,2.2688526504841997,0.9166873214881972
1,106.77602075332705,73.11538461538461,3.5350006026781866,1.4552137502179978,1.4691600908508984,0.0483482460124318,0.0199029760682103,73.5,3.7065,0.0504285714285714,5.0,69.2,76.0,0.0,0.0,67.0,81.0,1.5294117647058822,0.0,1.0388530628893144,4.827535400099691,0.2151932563493706,15.755401117841688,4.64698576974215,1.9043995743456712,89.73395322875896,0.5576923076923077,0.4864864864864865,0.7777777777777778,0.4,48.27586206896552,48.13002365051614,48.41323773825045,56.75675675675676,0.5370370370370371,0.4629629629629629,0.7615773105863908,0.7071067811865475,0.47536745734169,0.52463254265831,3.32843584856322,3.496657381159172,0.4780987625824506,0.5219012374175493,2.4143824467139376,2.522559497932102,1.764201862638259,0.3637274857327028,1.804988364862282,1.68408729627709,1.0117094392875794,0.6729584169055487,-0.8323946452428406,0.0001232874366999,0.011729736579565,0.3627148916094094,3.611108892870051,0.8394500376081019,1.8026421551586251,1.3701728106189786,1.668651501962623,0.8769907258678603
1,105.76337921447735,73.88461538461539,5.429237646097092,2.132843080923474,2.153701783569169,0.0734826542418138,0.0288672150463354,72.0,4.4478,0.061775,9.0,69.0,79.80000000000001,0.0,0.0,66.0,86.0,2.260869565217391,0.0,1.5228971358153214,7.472564197534504,0.203798468043645,35.75115667959707,4.906808228734292,2.260260207327981,146.66575797683026,0.5,0.5128205128205129,0.65,0.1818181818181818,51.21951219512195,51.38239313873533,51.07089941823991,48.71794871794872,0.5172413793103448,0.4827586206896551,1.095445115010332,1.058300524425836,0.5188427530573997,0.4811572469426002,5.382543301751748,5.1833814533605285,0.518778873463266,0.4812211265367339,3.88405538034878,3.740818312284219,1.4004023469808238,1.130841119892729,0.2770408654477208,0.8424614253940853,1.014959276719252,-0.5044522557797535,0.0,0.0048526542708872,0.2313177257083797,0.3320522901967853,3.666007988490692,0.736556158071545,1.0992543467156848,1.6010154556937288,1.5597291872150674,0.5481192036674126
1,103.68370709148088,75.37254901960785,5.2534209209379945,1.8601075237738276,1.8736627884702088,0.0696993930717579,0.0246788459189555,77.0,4.4478,0.0577636363636363,9.0,69.0,79.0,0.0,0.0,66.0,85.0,2.217391304347826,0.0,1.3248796633841804,7.284887908316414,0.1818668564373791,30.321395151983896,5.498527986842521,2.188719290195827,160.22464017955392,0.6274509803921569,0.5789473684210527,0.7727272727272727,0.2727272727272727,55.22388059701492,55.677331088381976,54.7910497524829,39.47368421052632,0.4335260115606937,0.5664739884393065,0.8748177652797063,1.0,0.5751832211074406,0.4248167788925593,5.524919798106593,4.748142064136718,0.5706228344082981,0.4293771655917022,3.9553789260928713,3.431096986477101,1.4715346059143075,0.2002562372816809,1.5056827911135515,1.5263828037429712,0.833180840421381,-0.0394318098190416,-0.3966323700554556,1.4566381047104029e-05,0.0025399680769016,0.5641942784841039,3.814678903065533,0.725006128260915,1.7153614810913178,1.5329861545412635,1.505955182184477,0.4448961052526662
1,101.15951197238677,77.20408163265306,2.589880883978504,1.9364916731037085,1.9551713570582483,0.0335459062423861,0.0250827628818614,77.0,2.9652,0.0385090909090909,4.0,75.0,80.0,0.0,0.0,73.0,82.0,1.6333333333333333,0.0,1.382514924957592,3.3770187028130203,0.4093891821818966,14.667401048939446,2.442663469196623,1.87332327696814,32.995680880620526,0.6530612244897959,0.6388888888888888,0.8695652173913043,0.5555555555555556,53.03030303030304,53.15089544355287,52.91195779510475,33.33333333333333,0.3277777777777778,0.6722222222222224,0.7922496919962071,1.1345633708846727,0.6226679104477613,0.3773320895522388,2.664782135520132,2.0744135290152976,0.5802715654952078,0.4197284345047922,1.9657979810061,1.6718889813493736,1.2193002546549665,0.7671399546388145,1.372871870041248,1.2404168439327776,0.7299819498522577,0.6719070927222806,-0.6726608362757391,9.546829894440572e-05,0.0334020405792372,0.4654396092649122,3.118859081492812,1.1299938379043355,2.065929409203749,1.6833406942496527,2.060496637310153,0.9166873214881972
1,102.86326364302003,75.82352941176471,2.9373857925232847,1.833030277982336,1.8516401995451028,0.0387397660767229,0.0241749532394877,76.0,2.9652,0.0390157894736842,4.0,74.0,78.0,0.0,0.0,69.0,81.0,1.3421052631578947,0.0,1.3093073414159542,3.894632622636713,0.3361825025050854,16.019832579098793,2.974574799546186,1.9116280829863213,46.33950421114256,0.6470588235294118,0.5897435897435898,0.8260869565217391,0.3333333333333333,49.99999999999999,50.001749994647646,49.99804973874589,46.15384615384615,0.4523809523809524,0.5476190476190474,0.8806305718527109,0.9689042833036096,0.4642145202088155,0.5357854797911845,2.6535413380335835,2.8507686038423143,0.4630129104008509,0.536987089599149,1.9769663422444363,2.129044051077518,1.412982002734591,0.4202910217810718,1.449737812181851,1.522918834520465,0.373369075556095,-0.3354497095960154,-0.3258801198548234,9.829968904191123e-06,0.0069941320119347,0.2774202562239303,3.3608505299728537,1.1194324505131354,2.19512356285833,1.6454072657470558,1.9240225506251207,1.1122402631316657
1,102.72992737918864,75.78,3.5184064110715503,1.921946292439101,1.9170733079429203,0.0464292215765578,0.0253621838537754,76.0,2.9652,0.0390157894736842,3.75,73.0,78.0,0.0,0.0,70.0,87.0,1.2195121951219512,0.0,1.3555755360781652,4.522900911258307,0.2997137374165982,19.26152499035896,3.336517066650211,1.9916607784553568,60.36294432472453,0.74,0.7567567567567568,0.9285714285714286,0.3,39.436619718309856,39.857461929080976,38.98597117230921,48.64864864864865,0.2651933701657458,0.7348066298342543,0.7071067811865475,1.177037240985461,0.4829060318478308,0.5170939681521692,3.143029000734572,3.2523839492905298,0.4645335417057867,0.5354664582942132,2.278006946813218,2.445753260272725,1.2415477030588338,0.4047579613103877,1.327142946052509,1.2559249185749346,0.8905897106676042,0.3958551069311955,-0.6759521350661243,3.797309322885659e-05,0.0099154171962269,0.3107678963646356,3.436762012601908,1.024710176842334,1.8923904348118092,1.631642548850131,1.5805284980699057,0.7901398665684615
1,100.6968050015616,77.46938775510205,4.072785905742359,1.8200274723201293,1.836272627667408,0.0525728423027859,0.0234935053065559,78.0,4.4478,0.0570230769230769,6.0,74.0,81.0,0.0,0.0,69.0,86.0,1.8846153846153848,0.0,1.2984408271308645,5.646010799074195,0.2299749103107943,23.031050087168197,4.348300423940041,2.069283849778645,98.20220460473747,0.5714285714285714,0.5675675675675675,0.9047619047619048,0.2,53.846153846153854,53.81467234824954,53.86885288196692,35.13513513513514,0.4716981132075472,0.5283018867924527,0.8932370012631204,0.9453131868733216,0.6429793617741194,0.3570206382258806,4.52730987494262,3.373559431744081,0.6343487490894366,0.3656512509105633,3.263005289926641,2.477349416290125,1.678694483914767,0.9248444805778604,0.8466833675329148,1.309105607821845,1.1856667283920164,-0.7852127066257086,0.0,0.0003763432699825,0.0626146053172005,0.2588353129582947,3.823921967342669,0.8163879905953283,1.7241180325607928,1.4974125914102712,1.9361824889889347,0.5729295759301233
1,103.88089568280832,75.01960784313725,3.4437781350048167,1.7320508075688772,1.7421544250772738,0.045905040482291,0.0230879746957691,75.0,4.4478,0.059304,5.5,72.0,78.0,0.0,0.0,69.0,83.0,1.3783783783783785,0.0,1.2318892078462913,4.621688003316537,0.2665452983763257,17.886367406229315,3.7517075187277777,1.9594922573698577,69.3568865250265,0.5098039215686274,0.475,0.6842105263157895,0.0,44.11764705882352,44.39629435069457,43.83382000087455,42.5,0.3066666666666667,0.6933333333333332,0.6851187890446742,1.0301575072754254,0.553467859053734,0.4465321409462662,3.438324224006188,3.0883533688054943,0.5369651581612638,0.463034841838736,2.4790584124309976,2.3020806915058563,1.356714079470149,0.3751314341790903,1.3688702264152717,1.5332884501058563,0.4005578280519266,-0.5774594790403977,-0.0617050220001281,5.01285113189736e-05,0.0097402325492924,0.3045803090132177,3.600881410760818,0.958967229897672,2.0310570339377705,1.628266666715932,1.6778473701892784,0.5561201315658328
1,105.63468644018528,73.84615384615384,3.095756839165476,1.6087993330796877,1.624807680927192,0.0419217071970324,0.0217858243021207,74.0,3.7065,0.0500878378378378,5.0,71.0,77.0,0.0,0.0,68.0,79.0,1.3,0.0,1.1489125293076057,4.269637446150273,0.2690890137155614,15.410894133054342,3.7162423920325582,1.894797946979132,63.468030703973085,0.6923076923076923,0.7222222222222222,0.9230769230769232,0.5,49.99999999999999,50.00022858854949,49.99972864380396,50.0,0.4924242424242425,0.5075757575757576,0.8062257748298549,0.8185352771872448,0.5340209955685583,0.4659790044314417,3.120111863253573,2.9145678723188,0.5312123886704647,0.4687876113295353,2.2787165290153677,2.140643113920784,1.4825210507623243,0.4392268994127173,1.043294151349607,1.2629076010559657,0.9863048031703204,-0.6557119703682417,0.0,0.0003018780157425,0.0231012287650616,0.3078715606733251,3.403035449246317,0.9973517385838978,1.8966749359292028,1.528743490367657,2.4628543750734897,0.5481192036674126
1,106.89264142011568,72.9622641509434,3.316405979549266,1.3155870289605438,1.3261495767254805,0.0454537152614717,0.0180310609089497,73.0,2.9652,0.0406191780821917,5.0,70.0,75.0,0.0,0.0,68.0,81.0,1.5588235294117647,0.0,0.9377293585702569,4.624839486024699,0.2027593306543674,13.624609077382727,4.931955519741996,1.8412941601419468,91.238010524081,0.5094339622641509,0.5,0.8,0.0666666666666666,45.65217391304349,45.62445057695071,45.6870801662327,53.333333333333336,0.4555555555555555,0.5444444444444444,0.6340037731068525,0.693103280083672,0.5059207064707381,0.4940792935292618,3.289560602414183,3.250835479463341,0.5039253378343179,0.4960746621656821,2.3688783992925098,2.350353534194419,1.80727134160728,0.3405683422449082,1.8750549976731623,1.8058088843407964,0.9953096046351,0.3644939126482445,-0.7033251619217439,0.0001737710786177,0.0133997915639806,0.3985085051972805,3.439724352729522,0.8149921091403759,1.7927944234783093,1.2591901968218615,1.9101860751118465,0.6484438250448905
1,104.28993014805364,74.90196078431373,3.925582259796803,1.5684387141358125,1.5780380482208445,0.0524096060862923,0.0209398885918655,76.0,2.9652,0.0390157894736842,4.0,71.0,78.0,0.0,0.0,66.0,80.0,1.4166666666666667,0.0,1.1158414048673433,5.448628361377583,0.2047930838478445,19.10027111708733,4.882977399485676,1.9880096418073885,106.42211658721364,0.4901960784313725,0.4736842105263157,0.6111111111111112,0.0909090909090909,55.93220338983049,55.973758898423576,55.882015797666085,44.73684210526316,0.5772357723577236,0.4227642276422764,0.851169663415213,0.7284313590846834,0.4630521966879541,0.5369478033120458,3.707679289567224,3.992576274302402,0.4676837335690119,0.5323162664309882,2.6899233734629022,2.8697802660674565,1.4074907318848102,0.5201009218951251,1.7259983420057037,1.644908275584304,-0.0638012071227063,-1.0638012071227063,-0.6559121759021819,0.000463048583431,0.035295685205619,0.4325704014226863,3.3727349004980787,0.8540107090255059,1.648135491880831,1.544057455078954,1.9254828386227396,0.778568184192166
1,102.71733504832328,75.96,3.833046425228787,1.3702375780893483,1.3838229606400372,0.0504613800056449,0.0180389359938039,75.0,4.4478,0.059304,6.0,72.0,80.0,0.0,0.0,70.0,83.0,1.4285714285714286,0.0,0.9785105994302152,5.384848989475543,0.181715513534859,16.553465793049636,5.503107470283031,1.9258590456697176,118.53361080131556,0.56,0.5555555555555556,0.8,0.1428571428571428,48.07692307692307,48.06721763234042,48.09140476564309,44.44444444444444,0.4021739130434782,0.5978260869565217,0.6208193510729724,0.7569125885243728,0.5410091866658687,0.4589908133341312,3.960735568806456,3.648173843643854,0.5365674983764194,0.4634325016235807,2.834858277998679,2.634586216098634,1.3296304252704838,0.2820380811373857,1.2628582364742882,1.236660443804586,1.0,0.6243426798526635,-0.592887430534392,0.0001009467281936,0.007988253003215,0.3558609258127347,3.620310751980053,0.7899854279579158,1.8324223797134276,1.5948198051101043,2.0629990336750343,0.5643856189774724
1,100.99045751436589,77.28,4.6248662418606274,2.4159335036125373,2.4406213661814125,0.059845577663828,0.0312620794980918,78.0,4.4478,0.0570230769230769,6.0,72.8,81.0,0.0,0.0,69.0,87.0,2.1739130434782608,0.0,1.7257799183356526,6.242784951091799,0.2764439159535411,33.8464916445026,3.6173702595359662,2.23648376855466,90.32985847503268,0.64,0.6666666666666666,0.9166666666666666,0.1666666666666666,51.21951219512195,51.352060023424606,51.09640706422659,41.66666666666667,0.4335664335664336,0.5664335664335666,1.136515141415488,1.299038105676658,0.5288063841663128,0.4711936158336871,4.539695459001055,4.285268846303978,0.5220429673845823,0.4779570326154176,3.309116311580893,3.1663092935706256,1.409701569520129,0.1815081595918317,1.2281934099282972,1.318947489724213,1.0112673712706386,-0.0445354769280299,0.0,0.0001938785917802,0.0072761632712088,0.2320155056444877,3.918562939644917,0.90026356263273,1.654453850707455,1.4779632947633927,1.6787284359135215,1.0158941141594504
1,106.8976137466028,72.96153846153847,2.8966616245462906,1.275715869773578,1.28703946646375,0.0397012136205606,0.0174847720685888,72.0,2.9652,0.0411833333333333,5.0,71.0,76.0,0.0,0.0,68.0,79.0,1.2682926829268293,0.0,0.9100743343912336,4.023460611726881,0.2261919333169828,11.50340720505447,4.421024151195574,1.7677966034624344,71.15126614331464,0.6538461538461539,0.7142857142857143,1.0,0.2142857142857142,46.93877551020409,46.9008725060036,46.98072289919776,51.42857142857142,0.4457831325301205,0.5542168674698794,0.6082762530298219,0.6782329983125267,0.4786508207934336,0.5213491792065663,2.783614935785236,2.905120166772969,0.4770478237266356,0.5229521762733645,2.0147595527415474,2.1094695048034,0.7767319402594604,0.4479452659486089,0.4020941170664169,0.6260667500407214,1.1474678672440015,-0.4200430512740172,0.0,2.99652475158531e-05,0.0109654840917881,0.3714335850081145,3.1859989633347774,0.8699384764466197,1.733332213570252,1.6826187115896991,2.146468599286394,0.3288715222004476
1,104.78149238408356,74.46153846153847,3.038714501564949,1.5904124511289146,1.6051388065321,0.0408091823557276,0.0213588449015246,75.0,2.9652,0.0395359999999999,5.0,72.0,77.0,0.0,0.0,68.0,80.0,1.2093023255813953,0.0,1.1350045348445297,4.13511979104288,0.2744792393446673,14.74468723302265,3.643262792433952,1.8756056746140684,60.261312307855135,0.5576923076923077,0.6216216216216216,0.9565217391304348,0.0588235294117647,47.54098360655738,47.4260024647358,47.65390521349676,51.35135135135135,0.4883720930232558,0.5116279069767442,0.7937253933193771,0.8124038404635959,0.5555576541099664,0.4444423458900336,3.082142137181056,2.7567400190238294,0.5508445997154527,0.4491554002845473,2.250511070155733,2.032192846716017,1.5138807697132457,0.6624517318741994,1.61048434191441,1.316436056486359,0.9972098415735235,1.3719713616634095,-0.9438788084924068,0.0001882714868123,0.0311677280364489,0.4709002162615112,3.213145007305409,0.9616036689805302,1.844075252991064,1.3990581004926494,2.2253157383407767,0.7673668851343778
1,109.1416102428996,71.49056603773585,4.130666930269782,1.593255013631383,1.5856635230862997,0.0577791890483764,0.0222862274274118,70.0,2.9652,0.0423599999999999,7.0,68.0,75.0,0.0,0.0,66.0,82.0,1.8928571428571428,0.0,1.121233429854474,5.575479607233689,0.2011008036689388,19.639396683685675,4.972630550230148,2.00009825222277,110.89920090846172,0.5849056603773585,0.625,0.88,0.1333333333333333,61.29032258064515,61.002652675730985,61.58073040665188,45.0,0.6666666666666666,0.3333333333333333,0.928840728025648,0.6567895774291852,0.5502332698839252,0.4497667301160752,4.135763108442246,3.739175893365657,0.5548867007782603,0.4451132992217397,2.997272225473613,2.684474707512297,0.8634027439952696,0.7369511190759064,1.0696175707462072,0.8792129803174455,0.8970935674419493,0.7203141367891748,-0.7583680050143867,0.0003248495812914,0.0448539838855527,0.2581536567056433,3.7226247010255777,0.7785595783879473,1.7572808511284344,1.6887344267590616,1.604131696685865,0.4322958833632603
1,98.50076619683972,79.14583333333333,4.312226967407875,2.5847342346612323,2.599900375234999,0.0544845734234214,0.0326578687190679,79.5,4.4478,0.0559471698113207,6.0,74.0,82.6,0.0,0.0,73.0,89.0,2.0869565217391304,0.0,1.8384071857381168,5.74629350030734,0.319929217962812,33.187870439643305,3.125691383761761,2.227949495965342,71.84456032990745,0.6666666666666666,0.6363636363636364,0.9047619047619048,0.4,42.85714285714285,42.71334335608095,42.999459072913744,45.45454545454545,0.3121019108280254,0.6878980891719746,1.0320936930842797,1.5322617553657474,0.5960039734353257,0.403996026564674,4.43621291660255,3.652383324658445,0.5694079786153575,0.4305920213846426,3.220652296720002,2.800690096851095,1.1658215438273738,1.2199903512407009,1.416720597180158,1.5344089998250443,0.15978386142352,-0.2675135250539622,-0.4035333332552996,0.0007184080490194,0.1130487197186697,0.3062076502802107,3.5464526792219004,1.085203953594862,1.6315291417763529,1.6522959315349988,2.021884191145632,0.6981203125901446
1,105.34368991231564,74.0576923076923,2.090252461892934,1.2602520756252087,1.2726381430466611,0.0282246502255083,0.0170171664327475,74.0,1.4826,0.0200351351351351,2.25,72.2,76.0,0.0,0.0,70.0,78.0,1.04,0.0,0.8998910609449497,2.842603060024868,0.3165728882797576,8.036297942861072,3.158830200002134,1.612026139648483,35.91720157050013,0.6923076923076923,0.6285714285714286,0.8636363636363636,0.2727272727272727,48.97959183673471,48.97288947196718,48.986963164663415,51.42857142857142,0.4938271604938272,0.5061728395061728,0.6324555320336758,0.6403124237432848,0.5097796556137623,0.4902203443862379,2.029586049161167,1.990269485751392,0.5083262302958279,0.491673769704172,1.5031998421616524,1.4783728599228798,1.490220363604502,0.3981342793494604,1.1609484787973186,1.3600156184720489,1.0,-0.9525173673764114,0.0,0.0002982582913394,0.0210591209081934,0.5807164754561058,2.9983566001841497,1.1039565046556843,2.14911440278331,1.566577641279462,2.756661622017711,0.6577430444008953
1,105.47861813142067,73.92307692307692,4.797246570756343,1.6087993330796877,1.617065849241865,0.0648951149009703,0.0217631543496731,73.0,4.4478,0.0609287671232876,7.0,70.0,78.80000000000001,0.0,0.0,66.0,84.0,1.9259259259259256,0.0,1.143438227624106,6.681258540595066,0.1711411436448118,24.00053141781895,5.843130288269026,2.0871909678930325,156.15785656922856,0.5576923076923077,0.5238095238095238,0.7727272727272727,0.2,43.74999999999999,43.39303901570569,44.10615137334698,50.0,0.3787878787878787,0.6212121212121213,0.7071067811865475,0.9055385138137416,0.5825704998682245,0.4174295001317756,5.099557843193704,4.316679915188996,0.5767176354141778,0.4232823645858222,3.6404319933270575,3.118791872680516,1.5575885428728846,0.2740389980088675,1.546800880291002,1.4899704969258698,1.0112762374541289,0.5283614489709709,-0.7073806420912884,7.75739118214054e-05,0.0071596764953655,0.2073714343803163,4.031768565580189,0.7246547888402841,1.775624441661673,1.5046430213049702,1.9956812695927637,0.3288715222004476
1,107.06328514616158,72.98076923076923,4.055934333572275,1.6861605068622505,1.693586518049092,0.0555753848078414,0.0231041755880993,72.0,2.2239,0.0308875,3.0,70.0,74.0,0.0,0.0,66.0,84.0,1.5294117647058822,0.0,1.197546511438626,5.593588766982933,0.2140926981453015,21.04421824477976,4.67087391892887,2.0301029070791223,104.50779153965632,0.6153846153846154,0.6176470588235294,0.9047619047619048,0.3636363636363636,57.6271186440678,57.642216302587656,57.596106503466906,44.11764705882353,0.5931034482758621,0.4068965517241379,0.9273618495495703,0.7681145747868607,0.5919837873107505,0.4080162126892493,4.303734195751598,3.572968970819084,0.5920333779006166,0.4079666220993833,3.1130473838091235,2.584193033273249,1.6915691441504492,0.4197610520312727,1.872061053667408,1.6621805276517718,1.3609838190339176,0.3844652302092224,-1.0,0.0009656239961461,0.0339770821510666,0.4273391438840037,3.4702494341814014,0.7631893928426031,1.5456381435070767,1.463975582399049,1.534467753435888,1.0962384073348252
1,109.2917739736486,71.33333333333333,2.532803652007522,1.4075269359666611,1.419846881501158,0.0355065932524419,0.0197316860182242,72.0,2.9652,0.0411833333333333,3.0,69.6,73.0,0.0,0.0,65.0,76.0,1.7419354838709675,0.0,1.003983358156041,3.404087016807458,0.2949346926793993,10.736853811120392,3.3905811178579204,1.7378471499247734,46.16733265093067,0.5740740740740741,0.5789473684210527,0.7727272727272727,0.1538461538461538,52.54237288135594,52.42749104388741,52.65971457581187,47.368421052631575,0.5238095238095238,0.4761904761904762,0.7272180923534244,0.6933752452815363,0.500334542906568,0.4996654570934323,2.4078581411925946,2.406247616079783,0.5022159356615106,0.4977840643384896,1.7785706314276093,1.7707056249781992,1.5946159474951644,0.2524191238871214,1.6584945477280113,1.683994597292493,0.8312165166860073,-0.098381732741446,-0.3989773469941797,4.398079234737466e-05,0.0056368938104391,0.4277189787844007,3.1724090165844325,1.1401972179294633,1.8319012098814205,1.498183836701081,2.01313251357923,0.7460039354656347
1,109.84820190333603,70.92592592592592,2.385900817592935,1.266401826003761,1.2749683396279692,0.033639332676245,0.0178552737869981,71.0,2.9652,0.0417633802816901,3.0,69.0,73.0,0.0,0.0,66.0,77.0,1.8,0.0,0.9015387587490902,3.2325225044312638,0.278896359580862,9.155368566186445,3.5855613228614565,1.6686459422738988,46.36163066867196,0.6111111111111112,0.6216216216216216,0.8695652173913043,0.2,45.09803921568628,45.18030339508408,45.01784467846303,48.64864864864865,0.3647058823529412,0.6352941176470587,0.5459642140991688,0.720576692122892,0.5201514256100069,0.4798485743899931,2.331344501013995,2.239204001257228,0.5088749216507618,0.4911250783492382,1.693110171472181,1.6633197720939212,1.5537452383912538,0.4339156991439061,1.1972255697063172,1.4141834192782703,1.2057819884430865,-0.3440532712703978,0.0,3.432303669355447e-05,0.0101651987462315,0.4166859282505175,3.2471818938808545,1.0574743829055675,2.026811730675204,1.44201447700397,1.775868027126339,0.7460039354656347
1,110.66549043653308,70.51851851851852,2.925107582222425,1.310336266793937,1.3194426408291935,0.0414799919747927,0.0185814491614686,70.0,1.4826,0.0211799999999999,3.0,69.0,73.0,0.0,0.0,66.0,77.0,1.6875,0.0,0.9329868387170088,4.020764320179996,0.2320421602515718,11.785119957426902,4.309561671533465,1.7783041174062173,69.31092721806809,0.5185185185185185,0.5128205128205129,0.75,0.1538461538461538,45.45454545454547,45.29702782195241,45.611655558903614,56.41025641025641,0.4945054945054944,0.5054945054945056,0.6577935144802718,0.6650621717611762,0.4650802590819485,0.5349197409180513,2.7420323249715275,2.940714955116145,0.4665911009633723,0.5334088990366277,1.9939199556252336,2.131913710677738,1.5266950267143795,0.7915956379677547,0.7350993887466251,1.1308972077305024,1.0098375337059171,-0.966273738168042,0.0,0.0007569719866204,0.0662066907188554,0.4435658122083215,3.249994320091141,0.9202119437326032,1.757871009618318,1.5448859660604504,2.2626379090960445,0.7460039354656347
1,111.7319356529469,69.87272727272727,2.880679867377925,1.3402597868683133,1.3465020552401314,0.0412275286770194,0.0191814437360804,70.0,2.9652,0.0423599999999999,4.0,67.0,72.0,0.0,0.0,63.0,76.0,1.9642857142857144,0.0,0.95212073414192,3.94044146838374,0.2416279347837778,11.786551994035566,4.138594326417,1.7783568863060282,65.23155481852487,0.5818181818181818,0.6153846153846154,0.875,0.3076923076923077,56.36363636363637,56.40524054123679,56.31590275162617,48.71794871794872,0.6288659793814434,0.3711340206185566,0.7585985091688537,0.5827715174143584,0.4824877619048215,0.5175122380951785,2.7370834074079857,2.834687528926266,0.4906344877523756,0.5093655122476245,2.0083696469053347,2.0463474812650384,1.438112715565019,0.4185262679602637,1.2439869319289782,1.2288495815848872,0.9820376119509984,1.1798972814465074,-0.5361682204987148,0.0003305320923485,0.0188113038188677,0.459212065127546,3.440540288357313,0.8364396149401893,1.803688844191816,1.472077498563863,1.7463099812477785,0.525578155774969
1,107.84349431972493,72.28301886792453,2.713055037085046,1.454436184706849,1.4681125465958311,0.037533781510182,0.0201214089766282,72.0,1.4826,0.0205916666666666,2.0,71.0,73.0,0.0,0.0,66.0,78.0,1.2045454545454546,0.0,1.0381123372429637,3.711402673373177,0.2797088940768197,12.104094377642395,3.5751455215627086,1.7899024112566233,53.07521858570392,0.6792452830188679,0.696969696969697,0.8260869565217391,0.3636363636363636,48.07692307692307,48.12217067611338,48.03271690915765,54.54545454545454,0.5545454545454545,0.4454545454545453,0.773329952663334,0.693103280083672,0.4363879003558719,0.5636120996441282,2.451740078345318,2.786302279394119,0.4449669966996699,0.5550330033003299,1.8178378128220043,2.0302552239828877,1.7059638487464046,0.3366072241069622,1.6219155445889148,1.5986363977663085,1.0125998807244525,0.7565066509727476,-0.5691581913738407,7.916628326692452e-05,0.00978649798861,0.4851419138310273,2.859007841626358,0.9140143802598966,1.4594536404168466,1.4331688273830234,1.798288513307854,1.296887650089781
1,102.1413348600763,76.42,7.262118654148993,2.1759351731039738,2.1969366427471,0.0950290323756738,0.0284733731104942,78.0,8.8956,0.1140461538461538,12.0,68.8,83.2,0.0,0.0,64.0,88.0,2.631578947368421,15.625,1.5534687979236816,10.251016209787853,0.1515429071744518,50.02871264802784,6.598791184920511,2.4061894376093207,270.5772616065014,0.5,0.4594594594594595,0.6470588235294118,0.1818181818181818,52.702702702702695,52.756505509453376,52.630949160336,59.45945945945946,0.6077586206896552,0.3922413793103447,1.2119199643540823,0.9736101204623268,0.4298317661719723,0.5701682338280278,6.720725761545753,7.740489556315452,0.4338316722037652,0.5661683277962349,4.828918344821371,5.516479640046505,1.773481231870552,0.5874355909739069,1.9422736688787108,1.950820232427415,0.7221723626609826,-0.0030612791014821,-0.4854510627547524,0.0003006784252088,0.0324337567673591,0.379676751830539,4.253340441068116,0.6257283481657201,1.5031073315968242,1.3003257344877897,1.7477089956054737,0.5643856189774724
1,107.05342205950582,72.69811320754717,2.5838619400809963,1.2633898235120649,1.2504900999992277,0.0355423521474935,0.0173785778993354,72.0,2.9652,0.0411833333333333,3.0,71.0,75.0,0.0,0.0,66.0,79.0,1.261904761904762,0.0,0.8842300295160979,3.33801518865603,0.2648969461017076,9.27264089776426,3.7750529582022745,1.6741735511165643,50.40473644984028,0.6981132075471698,0.7428571428571428,0.9230769230769232,0.75,36.73469387755103,36.61677213146032,36.83088262443257,62.85714285714285,0.3614457831325302,0.6385542168674698,0.5423261445466404,0.7208382919471292,0.2612791508902272,0.7387208491097726,1.7062422292742645,2.8689863810655374,0.2680964525500517,0.7319035474499481,1.2659739712998912,2.0917326188923844,1.1866114030080497,0.3739676033252819,0.8126437996827676,0.9996276013454084,0.9882994733504022,-0.5161568609419589,0.0,0.0002439753460692,0.0167211667996108,0.4811462571649403,3.154783346592056,0.9466277324883028,1.649440149762016,1.6113186110368225,1.505595451913844,0.7565177958857056
1,109.14479191207222,71.58490566037736,2.898500688447198,1.3082577962842268,1.3094101927166852,0.0404903891638643,0.0182756097003331,71.0,2.9652,0.0417633802816901,4.0,69.0,73.0,0.0,0.0,67.0,79.0,1.7666666666666666,0.0,0.925892826624752,3.928350564789162,0.2356950611597072,11.426700100371557,4.242770277322013,1.7648909392096512,66.66835606075439,0.6037735849056604,0.5945945945945946,0.8636363636363636,0.1818181818181818,58.49056603773586,58.40508810673819,58.57656761880372,45.94594594594595,0.6404494382022471,0.3595505617977528,0.7475450015964019,0.5601120336112039,0.592038135899848,0.4079618641001519,3.0226306260435942,2.5091118465271016,0.5946289094640138,0.4053710905359859,2.2017174467797243,1.8178789492948533,1.6622269116458666,0.6460608505301866,1.0423861734039963,1.3654165986690898,1.0,-1.1969282414711673,0.0,0.0006883177642728,0.0481317546623299,0.4138627737565259,3.187448042583564,0.982000557446128,1.840162387938668,1.4781820846870282,1.6609910554610503,0.6484438250448905
1,108.83830668960668,71.64814814814815,3.686576401289369,1.3175162452902711,1.3295786514610182,0.0514538965287221,0.0183886992105646,71.0,3.7065,0.0522042253521126,5.0,68.6,74.0,0.0,0.0,65.0,80.0,1.7419354838709675,0.0,0.940154080568951,5.132355601506904,0.1831817889416925,15.15882877386214,5.459057943354314,1.887635757385888,112.0713064581011,0.5,0.5263157894736842,0.7,0.1818181818181818,51.85185185185187,51.755308817512926,51.948640732057925,52.63157894736842,0.5869565217391305,0.4130434782608696,0.720576692122892,0.6044705248269888,0.4941695940417738,0.5058304059582263,3.607902140475196,3.650221385761937,0.4971844210498787,0.5028155789501211,2.6015561328247627,2.6162473870467995,1.753831887092081,0.1357336398703359,1.7733786975952643,1.7228857653535996,0.9988711829565368,0.2695699561627145,-0.8720001341590764,6.380681385270185e-06,0.0012321866762484,0.4113908514797244,3.5615036501039183,0.7633501014324122,1.5779872628050091,1.2538077330521875,1.8224616869472348,0.8525759262464397
1,105.77222939252832,73.80392156862744,4.074406007472192,1.5556349186104046,1.5681784571500106,0.0552058199737199,0.021077943902532,74.0,4.4478,0.0601054054054054,6.0,71.0,78.0,0.0,0.0,66.0,81.0,1.3783783783783785,0.0,1.1088696211614302,5.623003046887501,0.1972023866811209,19.588387068793544,5.070932542094504,1.9989687871019413,114.05547653903348,0.5882352941176471,0.5945945945945946,0.8636363636363636,0.2142857142857142,45.90163934426229,45.63092920332906,46.16378468903407,51.35135135135135,0.4462809917355371,0.5537190082644627,0.7423074889580902,0.8268454930564446,0.467267522542584,0.532732477457416,3.843714455617968,4.104146981892777,0.4664787953708248,0.5335212046291752,2.768136667913074,2.960379698481881,1.644256792783779,0.5509854674200092,1.7492421326272165,1.8323960172399636,0.4478262083210378,-0.3636797854328861,-0.3490815284074276,8.968486275368822e-05,0.0202511284862227,0.2496943690015327,3.708916214767229,0.8387682950794036,1.8878022944995343,1.3766830437014366,1.9576033096483592,0.8897922105053325
0,105.23685740245344,73.74509803921569,4.711021703430804,2.5099800796022267,2.517287169529442,0.0638825064809813,0.0340358904705433,73.0,4.4478,0.0609287671232876,5.5,70.0,77.0,0.0,0.0,66.0,90.0,1.7,0.0,1.7799908277681589,6.049135542895904,0.2942554047840071,33.82680290383447,3.398408266227198,2.2362310629127635,82.22972893002476,0.5882352941176471,0.5526315789473684,0.7142857142857143,0.1666666666666666,58.42696629213483,57.686904218262605,59.2278700945278,47.368421052631575,0.673015873015873,0.326984126984127,1.4708043058552855,1.025192863886237,0.5988560019185616,0.4011439980814384,4.681171142492668,3.831276230059692,0.6048442714982235,0.3951557285017763,3.4696273986862454,2.804433807311528,1.5034970641554426,0.9295855052892712,1.7262870698256163,1.634434177948794,0.6373195688235569,0.4286642618817593,-0.5988105896167553,0.0002972528727463,0.0604045833914739,0.1670825417674488,3.922261009301272,0.9915921161929528,1.8181046001118533,1.539060020191203,1.8353924159932768,1.0010162368184992
0,97.01646221523016,80.33333333333333,7.571877794400366,4.192191322578966,4.235548428513924,0.0942557401792576,0.0521849542229746,78.5,8.1543,0.1038764331210191,11.0,74.0,87.0,0.0,0.0,69.0,96.0,2.526315789473684,0.0,2.994985015846221,10.376247514802094,0.2886385479503805,97.63035072558289,3.464540710521828,2.6965549594275817,143.7957277499312,0.3958333333333333,0.3414634146341463,0.3571428571428571,0.25,47.887323943661976,47.83719281517397,47.951209391966174,68.29268292682927,0.6634382566585957,0.3365617433414042,2.440598643597598,1.738315026235113,0.3557789573988213,0.6442210426011785,6.189142069778586,8.328327138659567,0.3794597908230855,0.6205402091769143,4.704359749160006,6.015927694835113,1.5007521257311605,2.2745209484657707,2.05557888082412,2.029701842257455,-0.1026319761801648,0.2730868562245261,-0.511376918108457,0.0024898456892104,0.4023077269963647,0.4679275208652478,4.422995052579128,0.8601711246488245,1.5975811286358117,1.4716440913977888,2.309752353914221,0.930827083453526
0,93.53694041116484,83.65217391304348,11.8756845721824,8.515345624876955,8.61013027975439,0.1419650442620557,0.1017946722308575,80.0,8.8956,0.111195,13.75,74.0,91.0,0.0,6.521739130434782,70.0,111.0,2.555555555555556,0.0,6.088281507713955,15.812554148108669,0.3850283420811034,302.44514917161257,2.5972114016202923,3.18761673334014,164.2741836888243,0.3695652173913043,0.3414634146341463,0.5714285714285714,0.1428571428571428,51.54185022026431,51.50806698966788,51.58045590925269,63.41463414634146,0.7051792828685258,0.2948207171314742,5.113484846240113,3.306330017076061,0.4227849675143306,0.5772150324856694,10.2816258152669,12.013535669473244,0.4592546792289796,0.5407453207710204,8.119715409972507,8.810699673224713,1.4913184210241233,2.654226026434582,2.262628410884922,2.038101878073337,0.4139641812275867,1.3100648577578466,-0.5845920922240339,0.0085986672525759,0.7116617568246073,0.3312445650996207,4.319560260725401,0.8838671214102882,1.2678577774932844,1.4974106021069362,1.965174770426632,0.8405420367912846
0,94.19184641000626,82.8695652173913,8.69638161191749,5.176871642217914,5.235176282330014,0.1049405965761292,0.0624701195021049,81.0,5.9304,0.0732148148148148,8.75,77.0,87.0,0.0,0.0,71.0,111.0,2.555555555555556,0.0,3.7018286499425326,11.804275034533424,0.3136006776454147,137.27944186253305,3.1887686197243825,2.844575614757543,150.56440723486455,0.4130434782608695,0.4,0.625,0.1111111111111111,50.6024096385542,50.6252749063005,50.58664158391234,60.0,0.6932006633499173,0.3067993366500828,3.082207001484488,2.0504988306618106,0.3479040939487848,0.652095906051215,6.962562224301678,9.532241937951238,0.3788238788238788,0.6211761211761211,5.384109616606665,6.894497146934714,1.6362404842674103,1.369739227149411,1.9101024163365736,1.838534010354809,0.1028903474242106,0.211965968006198,-0.5522496578642253,0.0003105252499383,0.1062506969730462,0.4402157213631632,4.321731249206049,0.7999468322943016,1.703266037898111,1.4701470461358386,1.6918328794410094,0.960619470618611
0,96.97752992113764,80.55319148936171,9.665736236018123,6.370789317010815,6.432743834221519,0.119991971234245,0.0790879814842863,78.0,7.412999999999999,0.0950384615384615,11.0,73.0,85.80000000000001,0.0,2.127659574468085,68.0,107.0,2.238095238095238,0.0,4.548636786813988,12.94485703557585,0.351385633252893,184.98153990124675,2.8458761695595496,2.974098500424037,147.35784062360233,0.3617021276595745,0.3658536585365853,0.6,0.0,45.762711864406775,45.242866590665535,46.29543926298148,58.53658536585365,0.6411355115158008,0.3588644884841992,3.646916505762094,2.728450923957483,0.4809204885374742,0.5190795114625257,8.977055252363703,9.326403522661176,0.4985696050975178,0.5014303949024823,6.851551685712907,6.871180652258798,1.6210099108866338,1.6139560649124969,1.935922244928126,1.8693231042310767,0.0473756135676541,0.354673583691997,-0.541264531386522,0.0004708891478782,0.1528317596676825,0.3867116560314136,4.2988537451105335,0.8386852384808094,1.564081291116976,1.484425457669036,2.256104644500032,0.9454619322004488
0,102.29498044675996,76.38,11.513771700685671,6.653217726968581,6.719602757938135,0.1507432796633369,0.087106804490293,73.0,4.4478,0.0609287671232876,6.75,69.8,79.2,0.0,4.0,67.0,117.0,2.083333333333333,0.0,4.751476677017882,15.722184162193624,0.3022147958579144,234.68825380845828,3.3089048375717103,3.0774614635832704,208.09284492590325,0.58,0.5813953488372093,0.8,0.2,53.14685314685315,53.363929567795466,52.9290838544121,51.16279069767442,0.6620562471184879,0.3379437528815123,3.8676004619574313,2.7632257719315416,0.4709838760542401,0.5290161239457599,10.78986221477878,11.435293971561077,0.4869859080239114,0.5130140919760886,8.104920109021561,8.31869475587029,1.3673402770949212,0.7229859049680298,1.7637596283697334,1.4311971847106908,0.899207307281717,0.5914885267936167,-0.959984684865673,0.0013198300283419,0.0688017878070083,0.3756776642034978,4.048047190938307,0.474729901070783,1.0014634049757118,1.4969506693778938,1.4112983083974155,0.5643856189774724
0,98.25239492970525,79.5,4.094625434250184,2.036893755258915,2.0579036961363606,0.0515047224433985,0.0256213050975964,79.0,2.9652,0.0375341772151898,4.25,76.0,82.0,0.0,0.0,72.0,89.0,1.92,0.0,1.4551576585668806,5.517695023456613,0.2637256413014438,25.2242123776931,3.791819388760077,2.108787724301381,83.68841188483108,0.5833333333333334,0.5,0.7777777777777778,0.1,47.887323943661976,47.68403926762062,48.07674907929805,50.0,0.441025641025641,0.558974358974359,0.9668415633885687,1.0884771971408735,0.4614756464403998,0.5385243535596003,3.74828051851958,4.049117376214782,0.460144593030275,0.5398554069697252,2.7371873752274487,2.9648047267113675,1.6727277824121316,0.7012648174808609,1.822329482398279,1.7049820556790132,0.7185463899183038,0.5232453149321357,-0.6673368231145697,0.0001009095333614,0.0287810778277848,0.1554675430071088,3.811307752601005,0.9483033472689546,2.064442688004609,1.4733933535473998,1.7292181798278377,0.930827083453526
0,97.89399566835384,79.77083333333333,6.669203861169935,3.5189456834972965,3.555949009477196,0.0836045404377531,0.0441131869438156,79.0,5.9304,0.0750683544303797,7.25,76.0,84.0,0.0,0.0,66.0,95.0,1.92,15.625,2.514435658154912,9.18277255236027,0.2738209667959836,72.5377745039596,3.652021288585515,2.567534337033662,134.14272339783383,0.5,0.4871794871794871,0.7894736842105263,0.1111111111111111,51.72413793103448,51.692924015662655,51.74041549200066,53.84615384615385,0.6048109965635738,0.3951890034364262,1.9560385876873028,1.5811388300841895,0.5215422803876885,0.4784577196123119,6.631604051742884,6.351782383653307,0.5273532967519711,0.4726467032480291,4.888980428249553,4.628452195350433,1.5781899094984682,1.7355771325661218,1.8214874835445436,1.7763768549077184,-0.4232824039971774,0.0552575123303462,-0.5259917164097035,0.0006261467591112,0.147079511074341,0.4824989172318235,4.028107168362812,0.8701426971882372,1.4163564705940672,1.4710082548058732,2.0598430128376037,0.8144736980218353
0,97.54315029939268,80.02083333333333,7.910374505843261,3.71884218998905,3.756831581767412,0.0988539381099913,0.0464734249204567,79.0,5.9304,0.0750683544303797,8.25,73.0,84.6,0.0,0.0,70.0,101.0,2.2857142857142856,0.0,2.6564810872435203,10.964980839488994,0.2422695603513085,91.50914089194065,4.127633692610525,2.6684345880790405,181.03769740761447,0.3541666666666667,0.3170731707317073,0.4615384615384615,0.1111111111111111,52.38095238095237,52.51625806673219,52.23657275374841,56.09756097560976,0.5969230769230772,0.403076923076923,2.0536288136729643,1.6875503213108998,0.5034682850714649,0.4965317149285353,7.780256879476046,7.726474467681001,0.5086552375721856,0.4913447624278145,5.6898940418509625,5.592237199309546,1.7557700828707132,1.031497500485849,2.02614205868237,2.0348664130949987,0.5213170839894676,0.0836010172232173,-0.4915420498755268,0.0007892342972563,0.0933439438000361,0.2663129083744437,4.214661719245796,0.7906496821057601,1.510329398533155,1.4055643641143605,1.69463538881052,0.8144736980218353
0,93.76966955155947,83.28260869565217,8.634975502707993,5.485333981526456,5.545678087893803,0.1036828173125992,0.0658640989689942,81.0,7.412999999999999,0.0915185185185185,11.0,76.0,90.0,0.0,0.0,72.0,106.0,2.7058823529411766,0.0,3.921386582227354,11.58684816958652,0.3384342769348025,142.74300898177984,2.954783448819058,2.8615249572825867,136.94650878189458,0.3695652173913043,0.35,0.4285714285714285,0.0,48.21428571428571,47.93218881322771,48.47161310932707,65.0,0.5457902511078287,0.4542097488921713,2.897883240009382,2.643602913380972,0.471967773284429,0.5280322267155708,7.96015434769058,8.419678928913694,0.4795583156142068,0.5204416843857931,5.9900661311785415,6.240177466612212,1.6212258083384583,1.5347320873426271,1.904870496491769,2.05405605362093,-0.4096690118805028,-0.6011001604315709,-0.4027937459837215,0.0005469234003545,0.1423416043617249,0.2967250542509982,4.403784238571645,0.8699993085884152,1.3959181143253394,1.4834889212683395,1.9239799981497896,0.6003871691366318
0,94.60631686258128,82.69565217391305,6.558690808444392,4.08248290463863,4.128614119223853,0.0793111927414411,0.0493675640413714,80.0,5.1891,0.06486375,9.75,77.0,90.0,0.0,0.0,74.0,97.0,2.555555555555556,0.0,2.919371040605711,8.829387340471635,0.3306425381548351,80.97850185268979,3.0244142377461256,2.6153398477791145,106.81489913239125,0.4130434782608695,0.4186046511627907,0.6666666666666666,0.4285714285714285,50.0,49.9764700699867,50.02575971462881,53.48837209302325,0.6040000000000001,0.3959999999999999,2.2688603466778807,1.837117307087384,0.4801740985723571,0.5198259014276427,6.118288255586784,6.365895823026766,0.4923772036379493,0.5076227963620505,4.614172648004106,4.685062946729191,1.4291358356742552,0.8568826908439675,1.722504282403238,1.359102047798462,0.8127575507719111,0.9573785920191664,-0.9240979990468134,0.0008873427898499,0.0691797946481901,0.5411718962936773,4.020056315649835,1.0097351772213918,1.7442043365956332,1.571683268033547,1.9987149559747317,0.8405420367912846
0,98.2581981392663,79.5625,9.517970125985316,6.138473023792626,6.203010220867366,0.119628846830923,0.0771528424043063,77.5,5.1891,0.066956129032258,6.25,74.0,81.0,0.0,4.166666666666666,68.0,114.0,2.0,0.0,4.3861905909447785,12.74571629985148,0.3441305680870905,175.63117997843358,2.9058737953988616,2.9515717291088044,148.1497719973062,0.5625,0.5384615384615384,0.8095238095238095,0.3,47.82608695652174,47.36287941044374,48.279666370845895,61.53846153846154,0.611518915866742,0.3884810841332579,3.4309968129444224,2.734640903220241,0.3445203909392128,0.6554796090607873,7.481207717458734,10.319147982490394,0.3728067349821723,0.6271932650178278,5.819802747610906,7.548611658911219,1.5804393591685562,0.955120129534076,1.630759715457294,1.7366615151511948,0.1089373117917862,-0.0613371296332898,-0.3891220104998086,0.0007454299917217,0.0536512893175049,0.5037724820521468,4.063721875540868,0.7897290119301952,1.318253220227506,1.549630693104437,1.5829214622101302,1.0471804688852169
0,98.9735711864909,78.93877551020408,5.001700391139106,3.1490739379485304,3.1544182680692616,0.0633617681400765,0.0398926119336809,78.0,2.9652,0.0380153846153846,5.0,74.6,81.80000000000001,0.0,0.0,70.0,91.0,1.96,0.0,2.2305105480504994,6.459914585650549,0.3452848359644177,45.26691833403874,2.8961596219738186,2.3627510397104805,74.8357751374434,0.5510204081632653,0.6176470588235294,0.8571428571428571,0.3333333333333333,60.20408163265305,60.23268009451378,60.18912403167296,44.11764705882353,0.7037815126050421,0.296218487394958,1.8878108451945184,1.224744871391589,0.6265437344210288,0.3734562655789712,5.113314100216263,3.947722807699429,0.6349019905021724,0.3650980094978276,3.854206200678973,2.9227140953598467,1.2538021951414124,0.4969242617686946,1.0527015429938242,1.036520777497254,0.3666669903015567,0.6963852312568495,-0.5325618343507283,0.001066600641105,0.0326422193492171,0.5649757134129145,3.828996458679136,0.8841230231580445,1.5202384011043426,1.584079428437562,1.6609207745472794,0.687515491116148
0,95.89247940111323,81.25531914893617,7.63136572513153,7.413266603807692,7.494667991924575,0.0939183527313909,0.0912342315734384,81.0,7.412999999999999,0.0915185185185185,9.0,75.0,87.0,0.0,2.127659574468085,67.0,102.0,2.764705882352941,0.0,5.2995305598316325,9.474960645145346,0.5593195326406907,157.74830023079187,1.7878867832109206,2.9049347982940343,67.76062763559592,0.5319148936170213,0.5348837209302325,0.8260869565217391,0.1666666666666666,49.07407407407406,48.91381191299241,49.251758476541504,58.13953488372093,0.6811708860759493,0.3188291139240505,4.374166587286466,2.992583424995125,0.3829199364931113,0.6170800635068884,5.86315538360531,7.443002631650294,0.4539980796557921,0.5460019203442078,5.172519907435508,5.672470525719317,1.0395451433497922,3.0733035178404435,1.7187238015653947,1.4834852072200233,-0.4301622842181842,1.150003103293482,-0.5765425845445521,0.0023986386469917,0.6107189880479137,0.302237547843271,4.410451883362375,1.1137889069714002,1.8002725306050074,1.713999220101608,2.556030874379179,0.9454619322004488
0,89.10803900881635,86.93023255813954,9.6791266549091,5.338539126015656,5.344409955274281,0.1113436185556691,0.0614117662971303,85.0,10.3782,0.1220964705882352,14.0,78.0,94.6,0.0,0.0,72.0,117.0,3.583333333333333,0.0,3.7790685208153367,12.444545983629776,0.303672671207654,147.7453073996577,3.2930194081119373,2.8764838059259232,163.92052579693726,0.5116279069767442,0.5,0.631578947368421,0.25,39.99999999999999,41.054351477168105,38.83766132559767,63.1578947368421,0.4126984126984127,0.5873015873015872,2.4544633311382835,2.927997734238761,0.2782334237839983,0.7217665762160015,6.564228747861842,10.572493825224967,0.289816164456993,0.7101838355430069,4.955476228283124,7.757280335791902,1.5647245657016264,0.3600889726193852,1.6668932410975663,1.601914050170417,0.9153383861507294,0.25281771960318,-0.6804531542703821,8.817742859800041e-05,0.010957957161815,0.2727902171193839,4.722435394086042,0.9621200169999444,1.6592647549459147,1.5140597691660993,1.5328453518945424,0.7571532215863394
0,92.9551722414273,83.91304347826087,4.8296587731157885,4.402019738458447,4.451534748394268,0.0575555190578565,0.0524593025826654,83.0,4.4478,0.0535879518072289,5.0,80.0,87.0,0.0,0.0,74.0,98.0,1.84,0.0,3.147710407277138,6.086497724098362,0.5171628332028056,60.18830410737221,1.9336269658184224,2.4864822165830374,47.07606450683619,0.6521739130434783,0.6315789473684211,0.8333333333333334,0.3333333333333333,49.26470588235294,49.215421729307245,49.308688728844366,47.368421052631575,0.4782110091743117,0.5217889908256881,2.1768409137179416,2.273863352414684,0.5812883435582822,0.4187116564417178,4.640483908935673,3.938446855851128,0.5595353339787028,0.4404646660212973,3.624412178045377,3.215728391967999,1.2920402864800038,1.1193006954664453,1.3777555010001676,1.597423101765893,-0.4982182610722603,-0.8174990833497846,-0.303745676514403,0.0002814229730259,0.0613092288394619,0.0391402268643799,3.804895651144804,1.2922529079686824,2.066675248656501,1.7529066642706803,2.203923298856899,1.0806969044459374
0,90.801327832562,86.20454545454545,12.657527488185238,5.968911707903224,6.03955217513604,0.1468313233535856,0.0692412642097922,83.0,7.412999999999999,0.0893132530120481,9.75,76.6,90.4,0.0,2.272727272727273,72.0,121.0,2.095238095238096,0.0,4.270608298368657,17.42698738330951,0.2450571750834445,233.8093793661045,4.080680354123439,3.0758320390512504,284.4558601865126,0.4545454545454545,0.4358974358974359,0.6470588235294118,0.1111111111111111,50.0,49.92142048319157,50.08531699239811,56.41025641025641,0.6573107049608357,0.3426892950391644,3.462382884386884,2.5,0.4070452419078345,0.5929547580921651,11.1184349119117,13.419399925764631,0.4212230201439459,0.5787769798560543,8.234309021663934,9.652209445707545,1.7958241166999716,1.311103631027195,1.9054665244553528,2.0158684611432744,-0.0368265179275457,0.0793965316746998,-0.4157946526306038,0.0011485801465773,0.1027494891153843,0.485126507666977,4.214638438338048,0.7256961508421124,1.3332884607103832,1.5174748233069029,1.5473183514155788,0.868545939328661
0,97.13918840634244,80.625,10.737932365654093,6.464304606263012,6.502258911549236,0.1331836572484228,0.0801774214730296,76.5,7.412999999999999,0.0969019607843137,15.25,73.0,91.0,0.0,2.083333333333333,67.0,107.0,2.1818181818181817,0.0,4.597791369387125,14.236732467155186,0.3229527126392553,205.6408817537157,3.096428550878964,3.0200795673428997,176.33209953009936,0.4375,0.4146341463414634,0.7058823529411765,0.2857142857142857,58.24175824175825,57.89146987888072,58.58806645351097,58.53658536585365,0.8105906313645623,0.1894093686354379,4.159849495605214,2.010840187799509,0.3901612325902033,0.6098387674097968,8.89267419724425,11.117773921204591,0.4302235387171419,0.569776461282858,6.942045887359886,7.9890041689777105,1.4473405289375254,1.352816448568838,1.918149563244888,1.4620598397771332,0.3416187329813809,0.8783469384175682,-0.8371408766874899,0.0017462360247979,0.1401103067636686,0.5159796447249123,4.462581188618506,0.7861406044081538,1.3948362734919806,1.3991965021932682,1.7488834345612054,0.8144736980218353
0,86.08535290190804,90.33333333333331,13.063945294843617,7.752261668417144,7.847945202563472,0.1446193206071249,0.0858183948533263,89.5,13.3434,0.1490882681564245,17.75,78.0,101.8,0.0,2.380952380952381,71.0,118.0,3.8181818181818175,15.625,5.549335271113065,17.854288273580032,0.3108124606302408,311.2672146161054,3.21737422615644,3.200103489362108,229.7757076711342,0.3571428571428571,0.358974358974359,0.5,0.1428571428571428,49.15966386554623,49.03722194996048,49.30808877590433,64.1025641025641,0.6806006493506495,0.3193993506493507,4.578482281280556,3.136478917512439,0.319555643824583,0.6804443561754169,10.092895779268892,14.727832988763613,0.3513661759665752,0.6486338240334247,7.836741836094379,10.647689057840523,1.590880260251221,2.0933976701137817,2.0082911523525797,2.184393648891865,-0.232954526476373,-0.1145935756726332,-0.4158771890055107,0.0028456029684753,0.3531037213634914,0.3355710572295303,4.576492125005179,0.9153509613820036,1.6066765196500763,1.6199888345577405,2.4158998352109378,0.8987195704631268
0,90.33876261916453,86.27272727272727,7.692834589207889,5.844894412876457,5.908400086623296,0.0891687887052547,0.067749039559158,84.0,5.9304,0.0706,9.5,80.0,93.2,0.0,2.272727272727273,74.0,106.0,2.095238095238096,0.0,4.177869767214518,10.110381932095644,0.4132257114789869,132.7004307516393,2.4199849433881395,2.829842442568174,97.8678881902998,0.5909090909090909,0.5789473684210527,0.7727272727272727,0.375,46.85714285714285,46.68913033844156,47.04921747468623,55.26315789473685,0.5936010891763103,0.4063989108236895,3.221948537911861,2.6659225152173605,0.4642336782945526,0.5357663217054474,6.888677981951613,7.400401237353357,0.4831329260556175,0.5168670739443826,5.37749182797972,5.562062626893191,1.6490626262442352,1.0688990843009547,1.7251762155175403,1.7579668569864038,-0.3091969761082289,-0.1809961109285751,-0.4693229773039726,0.000219102588316,0.0416890572049162,0.4217489439621547,4.075480414328636,1.1167870348456523,1.7860661137426883,1.61383717506152,2.630895217798465,0.7444679479959951
0,94.83917513757643,82.3695652173913,12.65149740044355,9.72967967955095,9.83952039563726,0.1535943205121148,0.1181222658377787,80.0,10.3782,0.1297275,13.75,72.0,91.0,0.0,6.521739130434782,61.0,115.0,3.8333333333333335,46.875,6.957591595378447,16.674967629790032,0.4172476822652792,364.4800858219237,2.396658010347476,3.268643914621507,159.8567789688846,0.3478260869565217,0.3170731707317073,0.5384615384615384,0.1666666666666666,50.39370078740157,50.10078394923104,50.68696750271625,63.41463414634146,0.6882629107981221,0.3117370892018781,5.772190383050598,3.884701930767545,0.4889441065992429,0.511055893400757,11.659894138161432,11.920629771174598,0.5184997478333782,0.4815002521666218,9.199763940757206,8.86544762638422,1.2266578649467343,1.609879381958678,1.7485972412117157,1.4617279738786697,0.7065992924616076,0.9776342362738036,-0.6781930190223464,0.0026157370736354,0.2588496837866575,0.3414159128296243,4.745856792778374,0.8583435647280651,1.5696590052984667,1.5863347336293685,1.9962419523121404,0.8405420367912846
0,91.7660186276036,85.33333333333333,18.158394001873425,13.152946437965904,13.251191657291294,0.2127936797094541,0.1541360910699129,80.0,13.3434,0.1667924999999999,23.0,72.0,102.4,0.0,8.88888888888889,51.0,126.0,3.75,39.0625,9.37000747967328,23.522536537511478,0.3983417122014411,692.4269489076092,2.510407445089006,3.5473440720162634,236.20460340458789,0.4,0.358974358974359,0.5714285714285714,0.2857142857142857,58.666666666666686,57.89805160776192,59.39468780678027,64.1025641025641,0.8189700472937467,0.1810299527062533,8.51401034137399,4.002905921196936,0.5632707558398338,0.4367292441601664,17.653985020487415,15.54498433755944,0.5985334663014711,0.401466533698529,13.859140651508977,11.350546107322804,1.3375082111050969,2.333503036822986,1.9707904868081192,2.172012385847543,-0.6711669725464944,-1.0108066992032885,-0.4137683149050523,0.0042011771553731,0.4878827888262588,0.183438395460441,4.969413651789076,0.6963885538675351,1.2729395319494965,1.4691941066126828,1.7269303176758288,0.7322470795106233
1,84.57853677857209,91.7560975609756,10.624924676920958,7.146677549742957,7.237677414680372,0.1157952981801593,0.0778877670227169,93.0,8.8956,0.0956516129032258,14.0,84.0,99.0,0.0,2.4390243902439024,70.0,112.0,3.1538461538461537,39.0625,5.11781077996121,14.075244225234602,0.363603692985008,226.3028569112681,2.750247094000862,3.0616601466074926,154.84159811121552,0.3658536585365853,0.3684210526315789,0.7142857142857143,0.1428571428571428,49.73821989528794,49.651678980842775,49.8293660608103,63.1578947368421,0.6740088105726874,0.3259911894273127,4.201648028315336,2.9220646020342427,0.3843927304319126,0.6156072695680873,8.726568902363189,11.043527298481573,0.418211503920232,0.5817884960797679,6.848607557801017,8.07768397285909,1.5237673443046649,1.926493144565394,1.8552108458018035,1.9584277275947743,-0.475960977778497,-0.2161906661479173,-0.4464223986033149,0.0007617106590366,0.2181048261264951,0.3597312788254108,4.589020906951573,0.8272246400427739,1.8014860427678647,1.435099025317355,1.87923704193,0.784032000675817
