Stress,ECG_Rate_Mean,HRV_MeanNN,HRV_SDNN,HRV_RMSSD,HRV_SDSD,HRV_CVNN,HRV_CVSD,HRV_MedianNN,HRV_MadNN,HRV_MCVNN,HRV_IQRNN,HRV_Prc20NN,HRV_Prc80NN,HRV_pNN50,HRV_pNN20,HRV_MinNN,HRV_MaxNN,HRV_HTI,HRV_TINN,HRV_SD1,HRV_SD2,HRV_SD1SD2,HRV_S,HRV_CSI,HRV_CVI,HRV_CSI_Modified,HRV_PIP,HRV_IALS,HRV_PSS,HRV_PAS,HRV_GI,HRV_SI,HRV_AI,HRV_PI,HRV_C1d,HRV_C1a,HRV_SD1d,HRV_SD1a,HRV_C2d,HRV_C2a,HRV_SD2d,HRV_SD2a,HRV_Cd,HRV_Ca,HRV_SDNNd,HRV_SDNNa,HRV_DFA_alpha1,HRV_MFDFA_alpha1_Width,HRV_MFDFA_alpha1_Peak,HRV_MFDFA_alpha1_Mean,HRV_MFDFA_alpha1_Max,HRV_MFDFA_alpha1_Delta,HRV_MFDFA_alpha1_Asymmetry,HRV_MFDFA_alpha1_Fluctuation,HRV_MFDFA_alpha1_Increment,HRV_ApEn,HRV_SampEn,HRV_ShanEn,HRV_FuzzyEn,HRV_CD,HRV_HFD,HRV_KFD,HRV_LZC
1,76.67260107202834,101.61333333333333,6.517944737691752,5.049752469181039,5.083330045741962,0.06414458146265338,0.0496957663283792,101.0,5.9304,0.05871683168316831,8.0,96.8,108.0,0.0,0.0,88.0,115.0,2.2058823529411766,0.0,3.5944571463534642,8.52917657323384,0.4214307343142064,96.3141926055959,2.3728691777245396,2.6906603982922794,80.95448080798715,0.5066666666666667,0.46153846153846156,0.7,0.0,51.219512195121965,51.24255782545417,51.19344871593575,41.53846153846154,0.4552199258081611,0.544780074191839,2.4256054180009605,2.65350633886768,0.5675721153027802,0.43242788469721993,6.425658351383669,5.60872247206922,0.550622331610507,0.44937766838949306,4.856575279584488,4.387417444186569,1.2124093969521719,1.0826375466719016,1.4400153032828902,1.6172070534394298,0.23970497991553685,-0.44906278028040525,-0.3363332671204332,0.0010027992111956653,0.10938745186136657,0.6334231293896586,2.379546134130174,4.40800069216271,1.312552775027589,2.0496374507954833,1.84003359539221,2.7086254825869616,0.8305091587327841
1,72.67149599873022,107.33333333333333,10.116225984477317,6.903765047492992,6.952381871135428,0.0942505526504098,0.06432079236794713,107.0,11.119499999999999,0.10392056074766354,14.75,99.0,117.0,0.0,0.0,87.0,124.0,4.0,23.4375,4.916076366478278,13.533965023433938,0.36323991956282853,209.02274319570077,2.7530013804747386,3.027163653044214,149.03609757124184,0.4722222222222222,0.453125,0.6551724137931034,0.058823529411764705,49.11764705882352,49.12425937178895,49.11629054785857,50.0,0.5156619385342789,0.4843380614657211,3.530479530359256,3.421570232677222,0.569022657319305,0.43097734268069493,10.209155751921998,8.88489437689223,0.562801922991078,0.4371980770089221,7.638427419347772,6.732328384209806,1.5618364160534106,1.4539022177218417,2.017004220677249,1.9675062851118268,0.5973464012295215,0.27944303892131916,-0.5340448862117989,0.0027729322487125255,0.23861254522929806,0.608648456485168,1.0887599922250986,4.819114154689793,1.0213944144628058,1.5705359566737835,1.7354522686946958,2.7164176179397357,0.6855472223824791
1,72.57288572794684,107.61971830985915,11.776934111320069,5.086396422952951,5.122131576214922,0.10943100666191924,0.04726268106656976,107.0,13.343399999999999,0.12470467289719625,18.5,95.0,118.0,0.0,0.0,81.0,131.0,4.4375,39.0625,3.621893971671311,16.335030756434605,0.22172556793286688,185.86840054862472,4.5100797770998415,2.9761756716871086,294.68916749159854,0.4647887323943662,0.4444444444444444,0.6428571428571429,0.2857142857142857,51.34099616858238,51.390196657170605,51.2800920468799,46.03174603174603,0.5588072887907233,0.44119271120927667,2.7080128015453195,2.4062117680004325,0.5412521975653739,0.45874780243462626,12.017656677577055,11.063867216916162,0.5420751069706893,0.4579248930293107,8.710838230430115,8.006216736574647,1.5544370355189743,1.652982070522798,1.7359859787306786,1.9476269331476947,-0.7638325820997824,-0.6062229148963088,-0.37196415606003563,0.0005214586342120589,0.13663904247658692,0.5817431149009655,0.9932517730102833,4.918396105910026,0.8105835067808104,1.6457584038123414,1.55136165894178,1.9484198769348975,0.779545409514678
1,76.76724569192986,101.63157894736842,9.741789165258652,4.963869458396343,4.997224454860143,0.09585395864314572,0.04884180202461445,100.0,7.412999999999999,0.07412999999999999,9.5,94.0,107.0,0.0,1.3157894736842104,83.0,124.0,2.533333333333333,23.4375,3.5335712991428547,13.405323670195457,0.2635946274836446,148.8130561844145,3.7937040278336007,2.879611145876614,203.42332160813447,0.5526315789473685,0.5223880597014925,0.7714285714285715,0.25,49.579831932773104,49.5561671869175,49.61367734782959,47.76119402985074,0.5995670995670996,0.4004329004329004,2.7361444564361888,2.2360679774997894,0.4718965257933524,0.5281034742066477,9.208750245341713,9.741746333261897,0.4801912529883278,0.519808747011672,6.792921594114257,7.067588755071337,1.4493829101257123,0.8627331044620323,1.6066721034419515,1.7817086539842686,0.21888745081782268,-0.4873477770234249,-0.2971139050570417,0.0005256967951358208,0.06188647668284115,0.5260847639275417,1.3143208614948014,4.645761481958611,0.8216339102727199,1.6094197237810972,1.4528912610938907,2.2298081619349666,0.6576765803624827
1,71.7862252851809,108.85915492957747,14.364933269844398,6.906518659932803,6.940161274013507,0.13195889017453127,0.06344453679068818,106.0,13.343399999999999,0.1258811320754717,19.0,98.0,121.0,0.0,1.4084507042253522,82.0,138.0,4.4375,39.0625,4.907435099383219,19.656851781151776,0.2496551916868385,303.052869424544,4.005524552657315,3.1884885103993756,314.94400974939646,0.5492957746478874,0.5238095238095238,0.7272727272727273,0.2,54.86725663716814,54.62402943933894,55.07368176644892,50.79365079365079,0.6480982330038932,0.3519017669961067,3.9599443708579862,2.917960375608824,0.4370176476678206,0.5629823523321792,12.994616004522738,14.748958500218624,0.44945648895103996,0.55054351104896,9.605758807228307,10.63123392637925,1.527087266725596,1.710512822957674,1.8368182694093873,2.209656065111155,-0.7848514597501737,-1.3776326069137168,-0.2820315693061639,0.001607801401714218,0.22935017732487342,0.614523234093904,1.461517782357478,5.103765957441438,0.858274695196903,1.6200405536045408,1.6728993602766478,1.9455531816283214,0.779545409514678
1,69.9041133791856,111.57971014492753,7.2037690239237,4.782012866860934,4.817544575102468,0.06456163951821474,0.042857369504273865,112.0,7.412999999999999,0.0661875,8.0,105.0,117.4,0.0,0.0,96.0,130.0,2.3,23.4375,3.406518437723419,9.675434122608175,0.35207913097806665,103.545463594594,2.8402705869615903,2.7221011868369267,109.9234038181141,0.5507246376811594,0.546875,0.7714285714285715,0.25,49.79919678714859,49.80278228446695,49.79583847529011,45.3125,0.4745980707395498,0.52540192926045,2.346798390694685,2.4692134224025946,0.5337734938526068,0.46622650614739325,7.068853191564232,6.606461989373949,0.5272470764199525,0.47275292358004734,5.266694795146905,4.987101108981847,1.200733704963112,1.8162527915005695,1.4641618405238528,1.8928388692346076,-1.1587688579632456,-1.6743696839329445,-0.26397722237960813,0.0011065259373968658,0.22282191429479262,0.6204433804528691,1.9459101490553135,4.5830406746596,1.1400345838114345,1.6294557785318622,1.734324455692948,2.6497345583508833,0.8852933995330681
1,68.47544438718958,113.94029850746269,5.586457100868692,4.743416490252569,4.779545579242439,0.04902968637126046,0.04163071847614909,114.0,5.9304,0.05202105263157895,7.5,110.0,118.0,0.0,0.0,99.0,126.0,1.8108108108108107,23.4375,3.379649090072514,7.1978451191293615,0.46953623398905675,76.42298201603013,2.1297610868159462,2.5901940897658915,61.31876177459922,0.6417910447761194,0.6271186440677966,0.8378378378378378,0.2857142857142857,50.59760956175299,50.598362449438774,50.59541535532615,44.06779661016949,0.4370370370370371,0.562962962962963,2.234347263141451,2.535896139586405,0.5692530086692568,0.43074699133074346,5.430691901582572,4.724040625255019,0.5453677608591336,0.45463223914086637,4.152392215471837,3.7912616013557456,1.016450986115347,1.2689872937904925,1.17554434957859,1.3560546338521102,-0.33688435016649976,-0.557677783359825,-0.3577524888099296,0.00031479951802340503,0.08613178726682201,0.6144475614463771,1.6625477377480489,4.339364049088952,1.3317984564258862,2.0677499523325134,1.881003056701205,3.0531234276383232,0.995925090970679
1,69.31414455859044,112.55072463768116,7.359540090897741,4.907976700649428,4.943668630268408,0.06538865133555809,0.0436067978811242,114.0,4.4478,0.03901578947368421,8.0,107.0,117.4,0.0,0.0,91.0,134.0,1.9166666666666667,31.25,3.4957016124020015,9.758857213713451,0.3582080909524665,107.1724579659512,2.7916734022981577,2.737053301193186,108.97416848139741,0.5797101449275363,0.5789473684210527,0.8181818181818182,0.15789473684210525,51.32743362831857,51.40351681349984,51.25240331886416,49.122807017543856,0.6263736263736263,0.37362637362637363,2.7670772338173806,2.137092459184786,0.4709538725006655,0.5290461274993343,6.697121065312,7.0981591665868775,0.4886334472675963,0.5113665527324038,5.123872899543674,5.241709059710668,1.2228262268842383,1.2058227285308254,1.4611483377509693,1.6837695877142598,-0.020944355293597283,-0.6775302749332175,-0.3153781275672816,0.0010039896471021146,0.12448416202878058,0.6208365937965401,1.4534336639575192,4.3579894949785976,0.9840024940937102,1.5440297091440829,1.6934728965916137,1.8381807786176132,0.8852933995330681
1,68.86510045305089,113.56716417910448,8.971712921475145,5.96708141439855,6.012496698553484,0.07899918067273422,0.05254231236229503,116.0,8.8956,0.07668620689655173,12.0,105.2,121.80000000000001,0.0,0.0,93.0,128.0,3.1904761904761907,31.25,4.251477187408898,11.996366971413492,0.354397060171623,160.22838976889818,2.821693835484224,2.911709578187032,135.40029892577599,0.47761194029850745,0.47619047619047616,0.6666666666666666,0.23076923076923078,50.621118012422365,50.65898834704146,50.58307880985306,49.2063492063492,0.48212765957446835,0.5178723404255321,2.95218302538725,3.059663128767358,0.5216774162895389,0.478322583710461,8.664644734555962,8.296791677314317,0.5172639398927864,0.48273606010721376,6.472690823430892,6.2529309367004275,1.4301404753221283,0.2907491265147115,1.4565108335649228,1.3663071425362343,0.8313511542648317,0.374416012551702,-0.810245785120611,7.274146724375393e-05,0.005875205837739225,0.4082738041251832,1.9740810260220096,4.6580489452691545,1.188399298979566,1.812247195908248,1.7465200152772862,2.7019616494210092,0.905386446336981
1,69.74926842658228,111.97101449275362,7.380361489817089,5.83221277752732,5.870175059048972,0.06591314299733098,0.05208680839365585,111.0,8.8956,0.08014054054054054,11.0,106.0,120.0,0.0,0.0,94.0,124.0,3.1363636363636362,15.625,4.15084059100567,9.458164201442974,0.4388632405401041,123.33682863082068,2.2786141732201384,2.798062887148867,86.20602800820518,0.6086956521739131,0.5833333333333334,0.7714285714285715,0.26666666666666666,52.63157894736842,52.824879328300824,52.448951507357414,46.666666666666664,0.5231301340250756,0.47686986597492426,3.004971005894842,2.869031767614658,0.5142536093260217,0.48574639067397807,6.782589351281221,6.591915636091226,0.5156893495303235,0.4843106504696766,5.245634806883818,5.083536910307925,1.156693627643766,0.6618016298321976,1.2964555044344976,1.2833044685302335,0.5275882728148655,0.043507020960558584,-0.5198715677197692,0.00011678903592184911,0.025814973205369653,0.49954747600873306,1.6650077635889111,4.537457384402691,1.2732897575648134,1.813202112188031,1.8210693698208285,2.378447156095286,0.8852933995330681
1,69.7517048472752,111.84057971014492,6.182573204071256,4.991168671351666,5.027492458614165,0.05528023209549264,0.04462752861516975,112.0,5.9304,0.05295,8.0,107.0,117.0,0.0,0.0,99.0,127.0,2.225806451612903,23.4375,3.5549740098503038,7.915960028842145,0.4490894341176056,88.40765991571868,2.2267279611350737,2.653460005235138,70.50675814180164,0.5942028985507246,0.5873015873015873,0.7837837837837838,0.17647058823529413,51.13636363636365,51.04313285793979,51.23222737112527,52.38095238095239,0.6003541912632823,0.3996458087367179,2.7549141980842107,2.2477185780186426,0.4192338559298462,0.5807661440701538,5.125447228380726,6.032595949283429,0.44963966331885236,0.5503603366811476,4.114593633016609,4.552167214266244,1.1708656582192036,2.1034916972963633,1.4664115588998787,1.6205369852762421,-0.969269193581324,-0.44341731918722127,-0.42672876884921285,0.0005312928111403691,0.22121374373818983,0.576180453792785,2.3513752571634776,4.378694798281194,1.3230926778026912,2.0659524558736653,1.821654476822476,2.750781792583979,0.9738227394863748
0,75.2896237230951,103.4054054054054,13.644125555057098,9.003043625382915,9.064834961360981,0.13194789480844554,0.0870655029114396,99.0,11.8608,0.1198060606060606,21.25,92.0,118.4,0.0,2.7027027027027026,81.0,139.0,3.217391304347826,0.0,6.409806271515245,18.237295154462714,0.35146693724188305,367.2444178785373,2.845217839969368,3.2719253131906663,207.55631010505692,0.4864864864864865,0.4696969696969697,0.7741935483870968,0.05555555555555555,49.18414918414917,49.10792516950623,49.2836134757448,60.60606060606061,0.6728071657934763,0.3271928342065235,5.257930518115785,3.6666666666666665,0.3878522961626064,0.6121477038373937,11.357784135421735,14.268835764846118,0.4191854852431667,0.5808145147568333,8.850002649721947,10.417392152755797,1.4834739327857893,0.9958049595775016,1.7453688472925077,1.3522295760708314,0.6745953260411479,1.2468233826564141,-0.8947954541102876,0.0005993264596114745,0.06967158996348487,0.5375920871030888,1.0238110755854113,4.755089731267035,0.9284203443134962,1.4784181469268525,1.5749052335734572,2.3318722700441827,0.7552037877116291
0,65.68867977327501,118.87692307692308,10.613240098321313,7.2983302884975,7.3531759416303535,0.08927922950574418,0.06139400397985473,122.0,10.3782,0.0850672131147541,14.0,109.8,128.0,0.0,1.5384615384615385,89.0,134.0,3.4210526315789473,39.0625,5.1994805715845995,14.112040163610827,0.36844286944363513,230.5152363811581,2.7141249917797126,3.069669746227899,153.20736357222083,0.5692307692307692,0.5666666666666667,0.8529411764705882,0.16666666666666666,51.90615835777126,51.91246885070756,51.87506865540187,48.333333333333336,0.6215899090642416,0.3784100909357581,4.100909693892358,3.1997023671109215,0.3511373944311847,0.6488626055688154,8.362350081587637,11.36753177661432,0.3834852005954656,0.6165147994045344,6.585831732002006,8.350415376807058,1.2662177813583848,0.6990566837657228,1.2548693567635896,1.07069137482627,0.4658948051063643,0.8952861388075473,-0.7634664487365715,0.00040666908137134295,0.028301983850169972,0.7212815577355292,1.7609878105613015,4.8449935820595185,1.1217712247885891,1.9325647903201968,1.709086506450349,2.5065515062753865,1.0191699375894308
0,67.92613301306687,114.98507462686567,7.7840017310437375,7.691987172809551,7.748388809135041,0.06769575752595151,0.06689552707401868,115.0,8.8956,0.07735304347826087,12.0,108.0,121.80000000000001,0.0,1.4925373134328357,99.0,134.0,3.1904761904761907,31.25,5.478938270209345,9.576005610372386,0.5721527840663289,164.82787965974399,1.7477849061450543,2.924000781875859,66.94719226787686,0.6119402985074627,0.6190476190476191,0.9487179487179487,0.15,51.60493827160493,51.594435056053186,51.61139056215873,42.857142857142854,0.5134443021766963,0.4865556978233034,3.927222545651942,3.8230072737812852,0.5159968329109199,0.48400316708908003,6.878724404890804,6.662059292099035,0.5153670059135754,0.48463299408642463,5.600889499066968,5.431317456512172,1.0582879678306811,0.6840207411297776,1.3934402274448638,1.40029833839557,-0.14998304653603967,-1.183078964036669,-0.48997382602846407,0.0007376405657092919,0.057776257160403716,0.3570180614367242,2.3978952727983707,4.58760187663745,1.5140908223584681,1.9166462031279667,1.8580981147451228,2.9016958135498556,1.2675410248717731
0,68.70599076268866,113.74626865671642,10.017172049342264,8.004733448139143,8.059698583615969,0.08806593981182675,0.07037359152674486,116.0,8.8956,0.07668620689655173,11.0,108.0,121.80000000000001,0.0,1.4925373134328357,83.0,131.0,2.9130434782608696,39.0625,5.699067522794463,12.949682970802375,0.440093208122866,231.85304903402184,2.272245927778141,3.0721829215153473,117.69945758569452,0.5373134328358209,0.5538461538461539,0.9166666666666666,0.045454545454545456,52.43619489559167,52.42753198807903,52.431159060758525,53.84615384615385,0.5944667770158429,0.405533222984157,4.397551766433402,3.6321216516393955,0.4642332165517881,0.535766783448212,8.823222721908111,9.478661817149797,0.48539239581763993,0.5146076041823602,6.970929663210536,7.177650644054822,1.1104283172444074,0.41460629524018433,1.1270212183253907,1.0764498311232518,0.5588955866339997,0.23745665595523846,-0.621974479844409,4.3570227938532325e-05,0.00596439876187155,0.6548724247936373,1.504077396776274,4.6424462354539795,1.296027391326406,2.0647132239397914,1.9093296426675237,2.747775790390278,1.1770023802380751
0,67.31944148672571,115.98507462686567,7.828643090974426,7.261354744623948,7.315405082095695,0.0674969871439051,0.06260594104874592,116.0,8.8956,0.07668620689655173,11.0,110.0,123.0,0.0,0.0,98.0,133.0,2.576923076923077,31.25,5.172772540676398,9.830498188733603,0.5261963779826271,159.75291154635755,1.9004311733081067,2.9104188920159793,74.72874082807289,0.6417910447761194,0.6451612903225806,0.975,0.15,51.302083333333336,51.26690891478623,51.33489868815963,46.774193548387096,0.5043103448275863,0.49568965517241365,3.6742346141747673,3.642695536169715,0.5710597947247087,0.4289402052752913,7.428759864394376,6.438339965849727,0.5565807292829317,0.4434192707170683,5.860310278596038,5.230748143673553,1.354560645410628,1.4593032043817846,1.5306048129789,1.8496283240573321,-0.9804261321490308,-1.396357476582872,-0.2813864109113758,0.0003244047681629539,0.11390238625140955,0.3331162280508009,2.03688192726104,4.702533273498203,1.433258729186452,2.191417141829604,1.8119046511925019,3.5402007731037295,1.1770023802380751
0,66.82952247478036,116.73846153846154,11.893113715346113,8.070006195784487,8.130812938914476,0.10187828037658109,0.06912894079151181,117.0,13.343399999999999,0.11404615384615384,18.0,107.8,128.2,0.0,1.5384615384615385,91.0,140.0,3.823529411764706,39.0625,5.749352965665747,15.790904931998943,0.36409268439170744,285.21729937383634,2.7465533993650766,3.1621459733391926,173.48225448012982,0.4461538461538462,0.4426229508196722,0.6666666666666666,0.13333333333333333,51.724137931034484,51.55435617624411,51.89530139872793,47.540983606557376,0.5566218809980805,0.44337811900191937,4.2910020289785935,3.8297084310253524,0.5533884083539721,0.44661159164602793,11.746866897749479,10.552904655022052,0.5537671232500795,0.44623287674992035,8.843121064594245,7.938213379742723,1.4563800833097338,2.2312808059647216,1.7299598838664794,2.4005717906917092,-1.6581996770511616,-2.2534780437264343,-0.19944979357482412,0.0033655535071658994,0.4084979057661509,0.45999214291693846,2.028148247292285,5.016458920947621,1.238270513545399,1.9208749519423298,1.6861322685411875,2.7364209832037525,0.9265181250813006
0,67.58804958449088,115.38805970149254,6.904006794214759,7.470142589203388,7.524768735459219,0.05983293949196596,0.06473930325658091,115.0,7.412999999999999,0.06446086956521739,8.5,109.2,121.0,0.0,0.0,99.0,128.0,2.4814814814814814,23.4375,5.320814999703735,8.163231283526454,0.6518025540255407,136.45521344052486,1.5342069370915894,2.841960243043547,50.09634425707746,0.6417910447761194,0.65625,0.9285714285714286,0.2222222222222222,48.3790523690773,48.438997333022286,48.31866074616231,56.25,0.5338039641596524,0.46619603584034747,3.8888400485333565,3.6342388897391302,0.4532947377888499,0.5467052622111501,5.4960723356024666,6.035854029892557,0.47731189675693775,0.5226881032430623,4.760771368237067,4.981928651529572,1.0407702916997068,1.3976785776664298,1.2312720773885042,1.4169974896369995,-0.42180094100205423,-0.5943143529299877,-0.36711865287469514,0.00036268443576735156,0.10649311559585134,0.4258632134180522,1.580450375560848,4.437826743744327,1.4760840329275962,1.9472013484702657,1.8538849709776168,2.808964106909466,1.1770023802380751
0,65.21544443864164,119.765625,6.777043855007758,6.722386197658997,6.7748518442487535,0.0565858847645788,0.05612951293544368,120.5,6.6716999999999995,0.05536680497925311,9.25,113.6,126.0,0.0,0.0,105.0,133.0,2.4615384615384617,23.4375,4.7905436806024815,8.295582696128413,0.5774812760094901,124.84799557531608,1.7316578762695096,2.803351684141608,57.46044445598328,0.640625,0.6557377049180328,0.95,0.1,48.70317002881845,48.658412849041305,48.74880886908438,40.98360655737705,0.445732349841939,0.5542676501580612,3.1990421953675345,3.5673248312444024,0.6228636669041733,0.377136333095827,6.547015907301021,5.094435687870891,0.5785507580970907,0.4214492419029094,5.152537639755509,4.397674466662207,1.088720659133765,0.3708527449209562,1.088720659133765,1.215630681927995,0.22686241852714328,-0.5672381483378528,-0.15778863839532967,6.123054472986359e-05,0.007343652103555735,0.43961787786578377,2.6741486494265287,4.5054884298164914,1.5217154507091621,2.092244105509173,1.78826058434696,4.441290666653588,1.125
0,67.907949781853,115.02985074626865,6.846742532819467,7.262397967780632,7.31726890598017,0.059521441507578085,0.06313489864296125,114.0,7.412999999999999,0.06502631578947368,10.5,109.0,121.0,0.0,0.0,102.0,132.0,2.4814814814814814,0.0,5.174090463184048,8.244804820419132,0.6275576652063206,134.01835080771943,1.5934790624718644,2.83413437928834,52.55169542201995,0.6119402985074627,0.6307692307692307,0.975609756097561,0.0,50.899742930591266,50.894066586389094,50.90350630978902,52.307692307692314,0.5050272910083309,0.4949727089916691,3.677373644746604,3.640583216168277,0.5173272751276528,0.48267272487234736,5.930114340583362,5.728049444131401,0.513851362042354,0.4861486379576461,4.934031466026,4.7991872534972115,1.0504803491580628,0.47927435206853897,1.0799202595809274,1.264748237287757,-0.20284709088118014,-1.2028470908811801,-0.11435871352365186,0.0001799340783733994,0.01712400922876416,0.38347282960784,1.2527629684953678,4.414668251441441,1.553281270668469,1.8937175936142425,1.8659200699257985,3.5793278769530135,1.2675410248717731
0,66.34120399501954,117.8,8.744998570611662,8.495403168773098,8.560113646145163,0.07423598107480188,0.07211717460758148,119.0,8.8956,0.07475294117647059,12.0,111.8,125.2,0.0,0.0,94.0,133.0,2.9545454545454546,31.25,6.052914406916747,10.704632721693404,0.5654481161834027,203.55706320877053,1.7685088540920182,3.0156562864849876,75.72495099247169,0.6153846153846154,0.6290322580645161,0.9487179487179487,0.1875,51.5011547344111,51.64050375449815,51.36791265720929,40.32258064516129,0.4656852132496212,0.5343147867503787,4.131758532565592,4.425754352345099,0.634652884268874,0.36534711573112627,8.5278568223726,6.4703029081691605,0.5936993200170867,0.4063006799829133,6.700588427679896,5.5431092949158005,1.1172433971118614,0.5496316146229954,1.4381560954827277,1.32050857368699,-0.08145758635776978,-1.0814575863577698,-0.7140479526026443,0.0007258552815564058,0.0456755710900585,0.4321240749692348,2.525728644308255,4.693081228506793,1.4684439883196263,1.8272698263909846,1.9268175261965803,2.732273911669345,0.9265181250813006
0,67.64992613724019,115.41791044776119,7.699172040750291,7.639609699692541,7.697182604474188,0.06670690892671273,0.06619085088315017,116.0,7.412999999999999,0.0639051724137931,10.0,108.2,121.0,0.0,0.0,100.0,133.0,3.0454545454545454,31.25,5.4427300156548295,9.468140664654685,0.5748467633115094,161.89422831247995,1.739594034137581,2.9162014759682697,65.88288405843488,0.6716417910447762,0.6825396825396826,0.9767441860465116,0.10526315789473684,49.00990099009899,48.97572815255516,49.046641062307614,47.61904761904761,0.481827622014538,0.5181723779854622,3.7784815835098464,3.9183984169359496,0.5489119180782814,0.4510880819217187,7.014811925706981,6.359095949319112,0.5322467743631872,0.4677532256368128,5.63402650996443,5.281663916158093,0.9657881212593181,1.3918322845571343,0.9753351515903707,1.6617042635378851,-0.9413927611376849,-1.9348779995533811,-0.00685932524843702,0.0025500345972894393,0.20356431618853096,0.3917707888221331,2.159484249353372,4.627229071145713,1.4323573543824064,1.9521735024794198,1.8668486430937332,3.8843033550923525,1.086463735604377
0,66.39708519936963,117.76923076923077,7.901283975502871,7.094231811831356,7.142661207630117,0.06709124211726801,0.06023841512332307,119.0,7.412999999999999,0.06229411764705882,9.0,111.8,124.0,0.0,0.0,97.0,137.0,2.5,31.25,5.0506241756333505,9.842957104625219,0.5131206122253703,156.17823784347706,1.9488595394035446,2.900590628344723,76.73016339715501,0.6153846153846154,0.6290322580645161,0.9230769230769231,0.15,47.272727272727295,47.16003889002623,47.38461856201677,50.0,0.48494256442098715,0.5150574355790127,3.520912580116893,3.6285901761795403,0.42441675167771487,0.5755832483222849,6.412418391138859,7.467576242695898,0.4370528096089283,0.5629471903910716,5.1728104073047785,5.8707478913313444,1.1558989635854267,0.6461204521267749,1.1900989002719053,1.4342646975926892,-0.6010964623028467,-1.6010964623028467,-0.12210483120123217,0.00042925188156186866,0.03413349113867035,0.3378428500341286,2.9444389791664403,4.543306805529722,1.4320558518653546,2.1788294358102314,1.8586171590030944,2.841278938037547,1.111821750097561
0,64.76750262921752,120.5625,8.232485015097781,7.097954098256228,7.154895130018089,0.0682839607265757,0.05887364726391894,122.0,7.412999999999999,0.060762295081967205,9.0,115.0,127.0,0.0,1.5625,93.0,135.0,2.4615384615384617,39.0625,5.0592748651143955,10.584758966354977,0.47797733337111914,168.23607219303815,2.0921494183565463,2.932889230286737,88.57958925961522,0.625,0.6271186440677966,0.8918918918918919,0.1111111111111111,50.276243093922666,50.25255414594388,50.29592971424871,50.847457627118644,0.5387523629489603,0.4612476370510396,3.713532358906431,3.436051747704511,0.4375850362158023,0.5624149637841974,7.001840347533122,7.937969143520859,0.45639985787456583,0.5436001421254343,5.604288127540728,6.116281784564562,1.2630356777396592,0.48628016888649994,1.4435283960559355,1.40354600830063,-0.08924823889389799,-1.089248238893898,-0.582220888930878,0.0006656985609877942,0.03496051172260503,0.4888191646010247,1.9459101490553135,4.410178031846025,1.383578825990666,1.7937866905962694,1.8580160172713718,2.6161190517531603,1.125
0,66.00796812013375,118.16923076923077,8.699082621836538,8.496322733983215,8.56296705365055,0.07361546288495964,0.0718996195428862,119.0,8.8956,0.07475294117647059,12.0,112.0,127.0,0.0,0.0,100.0,135.0,3.4210526315789473,31.25,6.054932070713294,10.750392203993423,0.5632289460531572,204.49535925227784,1.7754769299545563,3.017653566686587,76.34829338461455,0.6153846153846154,0.6229508196721311,0.9736842105263158,0.08695652173913043,49.33333333333333,49.30109418333111,49.36557959243856,42.62295081967213,0.46363636363636357,0.5363636363636366,4.12310562561766,4.43471156521669,0.5716264590155843,0.42837354098441566,8.127939648692509,7.036158725248802,0.5456168736620716,0.45438312633792854,6.444509404632276,5.881079674411898,1.009291672535755,1.0746131648980957,1.301107024592274,1.546598254984803,-0.9679862967721036,-2.0142388837171334,-0.2715538591826125,0.0013515223116884543,0.11554122875068458,0.26883575898614076,2.0794415416798357,4.653233682879363,1.5533578500838632,2.050141350055799,1.8644495696737455,3.9783922808832517,1.3897771876219511
0,64.37926567206007,121.23809523809524,8.198572428279887,7.001151978943041,7.057387336916411,0.06762373173365185,0.05774712944139979,120.0,8.8956,0.07413,10.5,114.4,129.0,0.0,0.0,103.0,142.0,2.625,31.25,4.990326443393664,10.548576912598937,0.47308053823197244,165.37608347080928,2.1138049849551312,2.9254428124716485,89.19053784813697,0.5714285714285714,0.5833333333333334,0.9428571428571428,0.0,49.04632152588555,49.058353133773124,49.03662184902641,45.0,0.46001974333662377,0.5399802566633761,3.3851168950927857,3.667535912861815,0.5872571322242797,0.41274286777572045,8.083659721569386,6.776940341104684,0.5639834597731913,0.4360165402268085,6.196957757140429,5.4487494005057355,1.2406454403712504,0.5116751207720527,1.4005613704037518,1.155783530713281,1.3136997046556758,0.29311068750165603,-0.9783852678260614,0.0006602716418220855,0.03636164312963632,0.48357533150959675,2.6741486494265287,4.602213407895304,1.4156769958216202,1.776975684363782,1.809347847263116,3.0407687922562365,1.1385295092380794
0,64.62897774887178,120.734375,8.837586015836088,9.579243433690614,9.656173127460274,0.07319859001080752,0.0793414753146369,121.5,9.636899999999999,0.07931604938271604,12.25,114.0,128.0,0.0,1.5625,103.0,150.0,3.3684210526315788,0.0,6.827945498738472,10.406644948713378,0.6561140052714725,223.22902183914437,1.5241253684049039,3.055720766200628,63.44412626526724,0.5625,0.5737704918032787,0.8857142857142857,0.0,50.1043841336117,50.05352468927994,50.1618083347195,52.459016393442624,0.5812143227815256,0.41878567721847443,5.205456194566272,4.418618963928333,0.3817855198191027,0.6182144801808973,6.430140522697619,8.182392800821997,0.44180107747416086,0.5581989225258394,5.849935099434283,6.5755511364193175,0.8924531623733227,1.0196454279216356,1.0544489849637948,1.043831653079525,0.06449503174663285,-0.0519921724708583,-0.5104127685894804,5.749477876675403e-05,0.04657810963178585,0.3367736281928191,2.03688192726104,4.629834617629518,1.4978552789723667,1.7906789785284463,1.903209813533841,3.1781312719255106,1.3125
0,66.3987658873076,117.52307692307693,11.42243911713323,9.800350759028985,9.87751123383837,0.09719315913256446,0.0833908625915544,119.0,11.8608,0.09967058823529411,15.0,108.4,127.0,0.0,1.5384615384615385,89.0,138.0,3.823529411764706,39.0625,6.984455174693412,14.696124198857806,0.47525831165990345,322.46695803027325,2.1041189085307437,3.215455330699618,123.68957123573173,0.5230769230769231,0.5409836065573771,0.8484848484848485,0.0,49.448123620309055,49.339409273083085,49.55338334996653,59.01639344262295,0.6194891817146577,0.38051081828534244,5.497474167490214,4.308537114090124,0.34720868775446684,0.6527913122455331,8.65960545433878,11.873807301933107,0.3973798202573817,0.6026201797426184,7.252964526558647,8.931707336980205,1.2358899946946833,1.821800981392303,1.5007780324993638,1.6520682189608018,-0.5787646731927794,-0.3424215960092365,-0.4169557004268297,0.0006577767855633072,0.18286472338441304,0.48135887237986985,1.665007763588911,4.758047667376393,1.2263566597049003,1.8584508991423454,1.6801528301653084,2.7014531232769277,0.9265181250813006
0,66.2277582002457,117.84848484848484,8.166050592813045,8.941691459329501,9.010624071275316,0.06929279237923129,0.07587447111284998,118.0,7.412999999999999,0.06282203389830508,9.0,111.0,123.0,0.0,4.545454545454546,103.0,137.0,2.64,15.625,6.371473383521513,9.716510532237226,0.6557367855859754,194.49125183975673,1.5250021380246135,2.9958701816226725,59.270797343201785,0.6363636363636364,0.6507936507936508,0.975609756097561,0.045454545454545456,49.21700223713645,49.18320623762837,49.25427156390085,42.857142857142854,0.5287665961131423,0.47123340388685786,4.633438248212659,4.374107051730673,0.63677027978794,0.36322972021206007,7.7535701120353915,5.855999269196368,0.6042908425188865,0.39570915748111357,6.386963264425767,5.16843980040536,1.064032738181212,1.7869329341490041,1.3022996077965538,1.6778188110373884,-0.9682171426811266,-1.2680712963633112,-0.2898526597923671,0.001140455122583563,0.20852776636374465,0.39619503270256384,2.1972245773362196,4.447423052445458,1.5268027071004209,1.6162155658217738,1.9508784951460505,4.612368465441763,1.0989807489742642
0,69.66595140224284,111.8529411764706,8.361719286685243,6.803203810672751,6.853741133571236,0.07475636490857172,0.06082275297472351,112.0,10.3782,0.0926625,13.5,104.0,119.0,0.0,0.0,94.0,129.0,3.090909090909091,23.4375,4.846326832045396,10.673318114995855,0.4540600008198367,162.503240435938,2.2023521080791766,2.9178321355192405,94.02561860304314,0.5441176470588235,0.5555555555555556,0.8285714285714286,0.08695652173913043,49.0716180371353,49.16952365331223,48.96831745111697,44.44444444444444,0.4524346984843601,0.5475653015156402,3.2601821849074444,3.5865911899234293,0.5102025095158131,0.48979749048418686,7.623786907767217,7.469778629173414,0.500326337828816,0.4996736621711838,5.863058702325549,5.859233274605654,1.0822704177405187,1.5940349830583536,1.2505734375381659,1.6325220472304043,-1.020379324107509,-1.3462894097192937,-0.26038881595972085,0.000833242203201648,0.15421156777214876,0.4592807999185333,2.70805020110221,4.580058525603017,1.3044248224227137,1.7561035934636315,1.798546171692268,2.3769358943875427,1.1637796608272708
0,69.7653410412115,111.8695652173913,9.317777195608814,7.471514532661012,7.52333215921478,0.08329144014729993,0.06678773192817851,112.0,10.3782,0.0926625,13.0,105.0,120.4,0.0,1.4492753623188406,86.0,128.0,2.875,31.25,5.319799186899601,12.00495581014407,0.44313359174587075,200.63452921061744,2.2566558225932964,3.0093757871764435,108.36421371574735,0.5652173913043478,0.578125,0.8918918918918919,0.08695652173913043,48.06763285024156,47.906369837788525,48.222407134643966,46.875,0.48761854583772385,0.5123814541622763,3.7166426833663864,3.8098458463741456,0.5608189063510378,0.4391810936489624,8.990252486826723,7.9557730125122195,0.5487940978063683,0.4512059021936315,6.878883361880581,6.237357196752166,1.0016803687013656,0.4490671110560167,1.0202705027660608,1.0233083871937734,0.4329966968582504,0.04596761723938014,-0.49323512153769455,2.1259533841459656e-05,0.006063534644759352,0.2916161278170861,1.2729656758128878,4.767287682227672,1.304408110269152,1.8818827925432589,1.8843310733583545,2.9065209578036435,1.0623520794396815
0,67.13504158558443,116.72727272727273,17.613408751067123,12.074767078498866,12.157974590936032,0.1508936886773663,0.10344426624882205,119.0,20.7564,0.1744235294117647,29.0,101.0,133.0,1.5151515151515151,3.0303030303030303,87.0,160.0,4.4,15.625,8.596986278744609,23.330093639562808,0.3684934321980592,630.1045101230095,2.7137525736483585,3.5063826981541686,253.24840663128307,0.5151515151515151,0.4915254237288136,0.7586206896551724,0.05555555555555555,53.503184713375795,53.59003099853822,53.43681538262324,49.152542372881356,0.7133058984910838,0.28669410150891633,7.267220926874316,4.607229373495528,0.559280787270285,0.4407192127297151,17.44742869655302,15.488076094514367,0.5777237414084355,0.4222762585915647,13.364603774921683,11.42600244200629,1.1973356477063433,1.9202924813345574,1.4357259046923199,1.475753122115259,-0.3832638099281045,0.15133856619655184,-0.47915566622688577,0.001390151639195962,0.20454024913250576,0.5245692319473547,1.133098464739279,4.956902641921827,0.986540000349748,1.6296003063810633,1.7178377713395312,1.8405389452147827,0.5494903744871321
0,61.01585972636917,128.0,9.54205677291993,8.354436556075552,8.426149773176359,0.07454731853843695,0.06526903559434025,129.0,10.3782,0.08045116279069767,12.25,119.0,136.2,0.0,0.0,106.0,149.0,2.5,31.25,5.958187643906492,12.213938918949882,0.48781868678435797,228.6229335280433,2.0499419704314312,3.066089902972568,100.15146405696507,0.55,0.5535714285714286,0.7741935483870968,0.11764705882352941,50.0,49.99076470592951,50.01044668656866,50.0,0.5359397765905779,0.46406022340942227,4.361864517493123,4.0588345532966095,0.5127111920782769,0.48728880792172297,8.745651002371938,8.526071337993214,0.5171762851753863,0.4828237148246136,6.9105815068000895,6.6771262677735805,1.1284540547392414,1.3311725566517092,1.284996360486317,1.458796031755781,-0.5164748866213245,-0.5659748050511171,-0.3694386611254807,0.0002160172626341936,0.08341055484631066,0.2165822782194109,2.5649493574615367,4.733496795710051,1.4338229417616453,2.0087206683744054,1.8233172573463614,3.022229406037618,1.1813781191217037
0,62.08983359047261,125.85245901639344,9.736248534169908,9.410986487434071,9.487488043656818,0.07736240205605893,0.07477793092789871,126.0,10.3782,0.08236666666666666,14.0,118.0,135.0,0.0,6.557377049180328,105.0,149.0,3.588235294117647,39.0625,6.708667132096027,12.053880918515002,0.5565566125505172,254.04638134785958,1.796762409159648,3.1118831231350916,86.63184047549811,0.5081967213114754,0.5333333333333333,0.8125,0.045454545454545456,51.5625,51.58137471091814,51.538495462704795,46.666666666666664,0.5628528415506208,0.4371471584493789,5.034625867640876,4.436940463649034,0.5645731424379344,0.43542685756206573,9.05705497505079,7.953980159432624,0.5641661026743131,0.4358338973256866,7.327267650639319,6.440195690140709,0.7439402564653924,1.237598881444685,0.917811825911468,1.031961571821835,-0.1535322572913671,-0.29637729040655225,-0.40776515103414074,0.00023580311326132797,0.08004911984350975,0.20818703206716727,2.302585092994046,4.727719665673474,1.5052523554604365,2.040081968750083,1.8713123701094694,2.650233785635707,1.0694772248064224
0,61.71293392552621,126.45901639344262,8.223084924957305,9.651424765287247,9.728677974999632,0.06502569100627374,0.07632057436900727,126.0,5.9304,0.047066666666666666,9.0,121.0,133.0,0.0,3.278688524590164,110.0,145.0,2.772727272727273,23.4375,6.8792141681024495,9.248446197180739,0.7438237755223664,199.8745401072585,1.3444044582975696,3.0077275874459897,49.73460919925996,0.5409836065573771,0.5517241379310345,0.84375,0.045454545454545456,48.17204301075268,48.0549914261396,48.283858124511426,43.103448275862064,0.4304884594739667,0.5695115405260331,4.515509994283545,5.193705447095208,0.55287347590763,0.44712652409237,6.87672491629467,6.1842066174861055,0.5092559154046914,0.4907440845953089,5.817180420223465,5.710472299159911,0.8495199372588872,0.6491530386369134,1.0489802634812273,1.174096456577344,-0.33114887799032466,-1.3408693714653361,-0.3072624086319697,0.00024263016921179757,0.03303789173378753,0.39978403201828927,2.9957322735539913,4.5093730030671875,1.5358194969256864,2.0249832946940174,1.953527783414271,4.858724351138279,1.36115283157181
0,61.529467608220564,127.25,10.791749830624303,10.418367092848856,10.507574290727652,0.08480746428781377,0.08187321880431321,127.5,11.119499999999999,0.08721176470588234,14.25,118.6,137.2,0.0,1.6666666666666667,101.0,150.0,3.75,46.875,7.429977034794949,13.363921177785166,0.5559728268336238,311.9401305318615,1.7986490557374892,3.2010413595102936,96.1480168294941,0.55,0.5535714285714286,0.8709677419354839,0.045454545454545456,49.57627118644067,49.480535249841026,49.677263717778224,53.57142857142857,0.594628357276702,0.4053716427232979,5.729536299465827,4.730677577771242,0.44410529191285675,0.5558947080871433,8.905880830671245,9.963918700789229,0.4796479163677868,0.5203520836322132,7.488067159721997,7.799326452353591,0.9680448090248801,1.580859143405033,1.1406352259931172,1.3355061234065881,-0.7946388561802245,-0.6817336653023833,-0.37673101792374997,0.0003035228306005503,0.11588566774876558,0.52074853358388,2.639057329615259,4.831401845392171,1.4396852031209935,2.1063620775947225,1.865247895545263,3.084939987070731,1.0829299425282284
0,66.19596480592261,117.95384615384616,11.452934625608474,9.129279818255107,9.201233526690778,0.09709674588033791,0.07739705076126019,116.0,10.3782,0.08946724137931034,13.0,108.8,127.2,0.0,1.5384615384615385,90.0,142.0,3.4210526315789473,46.875,6.506254622004061,14.941619193614327,0.43544508380890007,305.40672205998305,2.2965008382982712,3.191848701691459,137.25376401467537,0.5692307692307692,0.5737704918032787,0.8571428571428571,0.1,49.53917050691244,49.49010239228783,49.59390106717246,42.62295081967213,0.5104986876640419,0.48950131233595795,4.648775226993784,4.552166761249221,0.5381586248766874,0.46184137512331247,10.96106658946883,10.154161873252479,0.5337497315191811,0.46625026848081863,8.418910021192795,7.868583912319817,1.1956240223342987,1.0741954762903152,1.307891524386428,1.2386771056963353,0.033606370330034,0.4156717159869503,-0.5644337275829177,2.187509322911645e-05,0.04081406998364107,0.5092838636376271,2.1102132003465894,4.790997043531412,1.2342162051854144,1.858148999706671,1.6841088772852113,3.0100290107327705,1.0191699375894308
0,67.40550874799106,115.77611940298507,6.242136618280994,6.668560337111525,6.719227533579931,0.0539155799181161,0.057598755006635576,116.0,5.9304,0.05112413793103448,7.5,110.0,121.0,0.0,0.0,102.0,132.0,2.0303030303030303,0.0,4.7512113533297295,7.48484872077989,0.6347772053347088,111.7216265145831,1.5753558754094115,2.7551073597724103,47.16520163532487,0.6417910447761194,0.6271186440677966,0.8918918918918919,0.15789473684210525,50.72463768115942,50.7490370236804,50.69898549322498,42.3728813559322,0.46643952299829644,0.5335604770017037,3.2451146714360077,3.470756955788441,0.6501467059622535,0.3498532940377463,6.035158916278349,4.427168082219865,0.5973789058534908,0.4026210941465091,4.84530248671346,3.9778116517992754,0.9354071521225167,1.1018640380763538,0.9187668685235786,1.425324088376363,-0.048476411156112675,-0.9264462455874511,-0.040272481587531134,0.0011421507548382214,0.11845747394441192,0.5395447722267592,2.1972245773362196,4.291554071210293,1.5706845319278617,2.047075003690983,1.952841007409884,2.9152465939123915,1.086463735604377
0,60.9480516235601,128.26666666666668,11.814766208646354,11.860059736323109,11.961754756541364,0.0921109631651223,0.0924640831833922,126.0,11.8608,0.09413333333333333,15.5,118.0,138.4,0.0,5.0,106.0,160.0,3.75,39.0625,8.458237903240839,14.343086764397487,0.5897083411805009,381.12935031509136,1.6957535279188378,3.288042504520026,97.28935992789211,0.65,0.6545454545454545,0.8888888888888888,0.13333333333333333,50.287907869481764,50.24876856227864,50.333554410683725,50.90909090909091,0.6012772623207614,0.39872273767923844,6.55875303539555,5.340960781447989,0.46710526315789486,0.5328947368421052,9.802796926704485,10.470401632450761,0.5017255852998788,0.4982744147001211,8.340026048086338,8.31129269168741,0.6949287530543115,1.891683848117594,1.0357795740884286,1.2108211793584547,-0.48371682524679827,-0.45270822316885484,-0.40746783325120145,0.0011547102276907345,0.2353535722425836,0.40543931364714103,1.7917594692280552,5.031401845392172,1.3089669979112442,1.998861381868039,1.8765021968299704,2.4388133716239087,1.0829299425282284
0,60.777280634665345,128.47457627118644,8.479907148571424,7.1655305167312555,7.225099090414171,0.06600455432265356,0.05577391827007178,129.0,5.9304,0.04597209302325581,8.0,122.0,133.0,0.0,1.694915254237288,111.0,157.0,2.0344827586206895,23.4375,5.108916561576617,10.90627174887803,0.468438406745384,175.04713105494343,2.1347523721374584,2.9501251072266967,93.12875794837248,0.6101694915254238,0.6315789473684211,0.9166666666666666,0.058823529411764705,48.15950920245399,48.13674854474398,48.18706421942211,52.63157894736842,0.5772330423102754,0.4227669576897247,3.8831620322130584,3.3232303033528696,0.4420998181148872,0.5579001818851128,7.251644123313438,8.146190580215315,0.4664333783900376,0.5335666216099623,5.816583613239278,6.22110442840785,1.014003404429985,1.0048676273615769,1.0840783200947604,1.4847179498760745,-0.009454630043006063,-0.9460160935736079,-0.1013010879520017,0.0010196927858594081,0.10124196859205623,0.516480437556869,1.916922612182061,4.484278753361538,1.262699390077444,1.6929703150755517,1.8656709233201696,2.8817091472900915,0.9970581439596342
0,63.483779507642296,123.0,8.960486737931436,8.870029275872696,8.9423797432951,0.07284948567423932,0.07211405915343655,124.0,7.412999999999999,0.059782258064516126,9.5,116.4,131.0,0.0,4.761904761904762,101.0,141.0,3.0,39.0625,6.323217356429183,10.881142387221036,0.5811170492406438,216.15360184234527,1.7208237158189013,3.0417325866911527,74.89811150052901,0.5873015873015873,0.5789473684210527,0.8787878787878788,0.1875,50.247524752475236,50.21889687714442,50.277251171177205,56.14035087719298,0.613161131611316,0.3868388683886838,4.951403179162746,3.9328377941067054,0.5072216235779679,0.49277837642203204,7.7494944809709105,7.638363367919839,0.5339659533750758,0.4660340466249242,6.502732431571421,6.075022965188436,1.215781616474804,1.0159047435931476,1.2223091384385214,1.7091468596689263,-0.11875061028113798,-1.089576353076235,-0.02078408502305886,0.0011945147390999321,0.10873738025222915,0.3799983202964796,2.3978952727983707,4.5458385033827104,1.3771869270934878,1.8076725270994884,1.8297651391045011,2.6460964452048388,1.0436520501349063
0,61.665264376047,126.66666666666667,9.67202267361228,7.0,7.059900675313723,0.07635807373904432,0.05526315789473684,127.0,8.1543,0.06420708661417322,11.25,118.0,132.0,0.0,0.0,108.0,151.0,2.2222222222222223,23.4375,4.992103642017819,12.742653537237679,0.39176327186715576,199.8450249059679,2.552561895947952,3.0076634510353757,130.10564748967712,0.65,0.6538461538461539,0.9117647058823529,0.2727272727272727,49.523809523809526,49.46463273411555,49.579544139804646,59.61538461538461,0.5409892770667588,0.4590107229332412,3.671887610029704,3.382255929466869,0.3683799159887592,0.6316200840112408,7.7340655283317155,10.12716394522904,0.3913478619968907,0.6086521380031094,6.053863568714553,7.54980479038898,1.1641596662958054,0.22780616773862228,0.9730032529695907,1.08439346720824,1.0,-0.37238719728712244,-0.01103073571539539,0.00019169576056531684,0.008983915441858399,0.3793674709849544,2.4849066497880004,4.570543771152118,1.1082828378723426,1.6111840018192982,1.7290343441106069,2.2770625074100286,0.8860335893412777
0,60.88687384891376,128.18333333333334,8.369621554870411,8.40500254590147,8.468803410743385,0.06529414813317184,0.06557016678638515,127.0,8.8956,0.07004409448818898,11.0,122.0,135.2,0.0,1.6666666666666667,107.0,146.0,2.727272727272727,31.25,5.988348320272411,10.119883385832093,0.5917408424543844,190.38487117522115,1.6899289828504396,2.986602544419031,68.40753694713717,0.6333333333333333,0.6363636363636364,0.9714285714285714,0.1875,47.1938775510204,47.172847937857625,47.2152032269894,49.09090909090909,0.5333493282149714,0.4666506717850287,4.377646982506501,4.094782213904708,0.5383632398187995,0.4616367601812002,7.425286358949885,6.875839020107523,0.537061005993658,0.462938994006342,6.095025455888413,5.658816290079733,1.2149220887344843,1.3896093838343795,1.2435716226623854,1.9004480971889208,-1.5134189245498035,-2.4190051228429885,-0.027294157503454798,0.0016735618601222255,0.1683541528726345,0.34850132934375067,2.9957322735539913,4.6171559625209495,1.4037488790608117,1.8470683404070736,1.8414944910428386,2.593834349156732,0.9844817659347531
0,63.56987278083138,122.61904761904762,14.767475783417588,9.641978113202907,9.718730790908085,0.12043378308806577,0.07863360791349944,124.0,17.7912,0.1434774193548387,22.5,109.4,136.0,0.0,4.761904761904762,96.0,151.0,4.5,15.625,6.872180446777605,19.865851000141163,0.3459293259940776,428.8956099935282,2.8907638782180616,3.3393217109564164,229.70993792508094,0.47619047619047616,0.4833333333333333,0.7586206896551724,0.0625,48.57819905213272,48.470235025012734,48.70064629009996,55.00000000000001,0.5490978487161693,0.4509021512838306,5.093390123564037,4.615547496075042,0.3869900739130155,0.6130099260869846,12.35825313569878,15.553958190563609,0.4043219673926139,0.595678032607386,9.45169412107767,11.47233398403144,1.2514271901061058,1.75479552135464,1.56892288093985,1.477240214724659,0.10429100019054793,0.7706918978502566,-0.5522469228462672,0.0005659602458704686,0.1755679845401536,0.4207127312175496,1.4170660197866445,5.103953732886365,1.032283157058269,1.7036720436645736,1.6645263871680793,2.7823506940180156,0.664142213722213
0,60.61849793843672,128.89830508474577,12.094020915531711,10.5135380704414,10.601238955547577,0.09382606627434201,0.08156459515529817,128.0,13.343399999999999,0.10424531249999999,16.5,116.2,140.0,0.0,5.084745762711865,105.0,152.0,3.1052631578947367,39.0625,7.4962079544466835,15.431625237520006,0.48576918108538697,363.41526567838145,2.05859086771547,3.26737327635878,127.06961115186502,0.576271186440678,0.5576923076923077,0.7931034482758621,0.2,51.910112359550574,51.72410938500842,52.08700199760548,59.61538461538461,0.66339104663859,0.33660895336141006,6.107947080964246,4.350841822153905,0.4066907303352393,0.5933092696647607,9.841103619077114,11.886451826758549,0.4557307887684312,0.5442692112315686,8.190065261805682,8.950350875559437,1.0953858474101508,1.3572449292581874,1.2722141928395607,1.5511968260669948,-0.6987256672805167,-1.1109344942389745,-0.29444930888051707,0.00038625652432938977,0.1042018424630535,0.4291537970506649,3.332204510175204,4.842234947916856,1.2982476300670178,1.804350533858746,1.8161023431019625,3.2271697317740164,0.8973523295636707
0,63.49805015484603,122.76190476190476,10.089461582415659,8.729815428710669,8.798541415585701,0.08218723554333934,0.07111176260780608,121.0,7.412999999999999,0.06126446280991735,9.5,116.0,128.2,0.0,4.761904761904762,100.0,150.0,2.625,31.25,6.221508299511334,12.91188151641829,0.481843664039225,252.36846703001996,2.0753619371419063,3.1090051996369708,107.18730974424257,0.5714285714285714,0.5689655172413793,0.8484848484848485,0.1111111111111111,48.32904884318766,48.29629104076476,48.37274648226071,51.724137931034484,0.5616931216931218,0.4383068783068783,4.6641288962308645,4.1201225510979125,0.36172455026099065,0.6382754497390093,7.765662730717804,10.315578832366354,0.3994214495438345,0.6005785504561655,6.405451428584689,7.854507511067462,0.9930746433431586,1.2986281953002705,1.1172196092911784,1.1831829747732636,-0.08116547656161899,0.16837956759661177,-0.4492053493672736,0.0004646475945366368,0.08161684074165981,0.5856833029874866,1.4469189829363251,4.693250510966885,1.260384847317925,1.7136493621404232,1.8347374726086052,2.5834273839121824,0.8538971319285595
0,61.44541895100244,127.13333333333334,13.77970340713836,9.452826677951407,9.532435630380135,0.10838780865604372,0.07435364455651343,126.5,15.5673,0.12306166007905138,21.25,115.8,140.0,0.0,1.6666666666666667,96.0,153.0,4.285714285714286,46.875,6.740449875466056,18.36411704539069,0.36704459347572493,388.873911318533,2.724464595787968,3.2967789182405167,200.12954689229312,0.31666666666666665,0.31578947368421056,0.3888888888888889,0.0,51.10619469026548,51.023924463511726,51.184337035542256,47.368421052631575,0.5149848254931714,0.4850151745068285,4.837889251914837,4.695008354441541,0.4693351092836263,0.5306648907163736,12.58089604555325,13.377662334944452,0.4747564841125947,0.5252435158874055,9.531110053997134,10.025092343616276,1.1827474891456509,2.1640109738608198,1.457088072036195,2.111590564228805,-1.3219727069590252,-1.9506996536287051,-0.19755121388090288,0.0043762023111204255,0.4306459344991068,0.4205980734993675,2.120263536200091,5.069146220500345,1.2183202577872418,1.7843916652097538,1.7957874716775686,2.6839971814799,1.0829299425282284
0,64.14098432849677,121.25396825396825,8.120003682599382,8.908133289846836,8.980323988129946,0.06696691085269814,0.07346673612519318,120.0,8.8956,0.07413,11.5,114.0,128.0,0.0,4.761904761904762,106.0,145.0,3.15,31.25,6.350047989258904,8.892060880069954,0.7141255637926929,177.3900710053766,1.4003139653607122,2.9558994175192033,49.80670812479849,0.4603174603174603,0.4482758620689655,0.5769230769230769,0.11764705882352941,49.24999999999999,49.2701881763386,49.214565438408734,53.44827586206896,0.6567073170731709,0.34329268292682935,5.146222552258797,3.720787859456914,0.30665797355778934,0.6933420264422105,4.924130545913981,7.404166736484755,0.4248920118717291,0.5751079881282711,5.0364009069265006,5.859434586918318,0.8920446943528413,2.110355306459568,1.1985869159603544,1.5327876258439708,-1.119116810557653,-1.085258756102502,-0.34163770486388506,0.0012247444015201364,0.2720397307900447,0.36381194303713693,2.03688192726104,4.5964272495365694,1.3642628549167801,1.9537805441149358,1.9276440830689663,2.2938317951821503,1.1385295092380794
0,62.202681156927355,125.19672131147541,6.26317191240761,6.5370737592085755,6.592154213543646,0.05002664484180492,0.05221441656563089,126.0,5.9304,0.047066666666666666,9.0,120.0,130.0,0.0,1.639344262295082,111.0,140.0,2.259259259259259,15.625,4.661356947024184,7.439815015013958,0.6265420494484484,108.94928153373876,1.5960620693859424,2.744194480597654,47.49762619484714,0.4426229508196721,0.4482758620689655,0.6153846153846154,0.0,49.66887417218544,49.68041014991604,49.65546680808065,50.0,0.5210608424336975,0.47893915756630256,3.3648230114383555,3.225954069886449,0.5318461585571241,0.46815384144287603,5.425692176415866,5.090453011707973,0.5288057699496449,0.47119423005035505,4.5144307222243105,4.26142532056023,0.8828649013432163,2.0833551379386974,1.2539554635720345,1.4168043085030881,-0.6473259122516541,-0.37833406038024586,-0.4218333725414771,0.001121625119479733,0.268264327259445,0.5091508017306747,2.169053700369523,4.315925969300297,1.4126333445520842,1.9808057571266013,1.9230325821528182,2.621267346663437,1.2639276293166808
0,60.10376984797385,129.78333333333333,6.19757105692623,5.936100414884608,5.985859042324357,0.04775321220182019,0.0457385417867056,130.0,7.412999999999999,0.05702307692307692,9.0,124.0,135.0,0.0,0.0,118.0,145.0,2.4,0.0,4.232641520054366,7.732826790345913,0.5473601872653644,102.82521894814329,1.8269505588194932,2.7190697528973846,56.50996890350726,0.43333333333333335,0.45614035087719296,0.7307692307692307,0.0,51.2280701754386,51.22262821361444,51.232027648169286,47.368421052631575,0.5146705146705145,0.4853294853294853,3.0371265912099354,2.94928395751731,0.47357687717596286,0.5264231228240371,5.321493390936065,5.610554184723226,0.4830532851117549,0.5169467148882451,4.332576014382823,4.481996994743764,0.7512816600117718,1.2821129725041414,0.9093748131157892,1.2346838447203934,-0.8378555689920688,-1.4632939130770417,-0.24627116441288996,0.0003031312850646066,0.09387268177402676,0.47404229028497546,2.302585092994046,4.396834613373056,1.4920245398409806,1.971575721776239,1.9043782294170026,2.9774190780766214,1.279826295715179
0,58.38852900925955,133.75438596491227,7.892765000199292,8.466319827916463,8.542863658078565,0.05900939205290657,0.0632975118299106,134.0,8.8956,0.06638507462686567,12.0,128.0,141.0,0.0,1.7543859649122806,114.0,149.0,2.590909090909091,31.25,6.040716823379468,9.501161924842556,0.6357871669974269,180.30803054577433,1.5728533885366187,2.962985179690569,59.775738914094866,0.49122807017543857,0.5,0.6296296296296297,0.11764705882352941,50.263157894736835,50.26967073048409,50.25512889246999,42.592592592592595,0.45316392625809676,0.5468360737419034,4.066492793103614,4.467051091553067,0.6291914877000369,0.3708085122999631,7.536472849122847,5.78564213519226,0.5785189223603282,0.42148107763967196,6.055360709401608,5.16856848513481,0.8697933230644804,1.3852899921096165,1.01633914551462,1.5178563956371567,-0.9105138969316187,-1.82165082329319,-0.13796948438298393,0.0013227985382857172,0.16316490162733624,0.2832511088678853,inf,4.558693689899993,1.6417511117544947,2.1224797895432803,1.9143871030135895,3.7240303011084315,1.1256454413300379
1,110.66852802972019,70.33636363636364,6.492447655838526,1.5144563320384568,1.5123795419916914,0.09230570533052058,0.02153162679646248,68.5,6.6716999999999995,0.09739708029197079,9.0,64.0,77.0,0.0,0.0,63.0,88.0,1.6417910447761195,0.0,1.06941382987013,9.033111025622524,0.11838820831900827,30.348205559582787,8.446787177532116,2.1891031270003927,305.20306553780927,0.6454545454545455,0.6764705882352942,0.8695652173913043,0.21739130434782608,57.75862068965518,57.29284921624836,58.22175829168438,47.05882352941176,0.6440000000000001,0.35600000000000015,0.8633483482177806,0.6419011115717412,0.507983904742058,0.49201609525794227,6.438168282418008,6.3361726593023,0.5098862306817546,0.49011376931824524,4.593222246043817,4.503283302520896,1.4301104858982292,0.6351249253230078,0.7949855605752214,1.1125480232367253,0.958708837842553,-0.816829599185904,0.0,0.0011523040641306913,0.06059963001503162,0.43368476481338725,0.3831860694870643,4.096161185338062,0.5046381725432372,1.0798180137811881,1.4442514698501456,1.599237747092844,0.431541072678842
1,87.83967647518215,88.82758620689656,9.028645493909442,5.266171108076046,5.296735179029771,0.10164235998578176,0.059285311387502065,88.0,7.412999999999999,0.08423863636363636,9.5,81.0,93.8,0.0,1.1494252873563218,76.0,118.0,2.3513513513513513,23.4375,3.745357363241293,12.278920466592222,0.3050233425187047,144.47853233076015,3.278437616421693,2.8667734312210222,161.0226989869046,0.40229885057471265,0.3766233766233766,0.5172413793103449,0.0,49.201277955271564,49.13803905404273,49.27777722219791,58.44155844155844,0.6146750524109014,0.38532494758909863,2.936584650876713,2.3250553440598307,0.3555533590468164,0.6444466409531835,7.321710945262184,9.857202273410305,0.377612195611974,0.6223878043880261,5.5781260553046295,7.161365757028,1.4395299594551725,1.014772683132378,1.6889022718636841,1.3878489500824935,0.9936095652789865,1.3402589607419308,-0.7966706995421928,0.0012506859933662433,0.10093371231240258,0.5555513560765126,1.1759989522835301,4.665709342226529,0.8502942889029651,1.5192376767378268,1.6114663069879467,2.2227492970831593,0.8146250397050115
1,75.95332327320972,103.16216216216216,14.231960008093521,8.223754433730457,8.280379699968286,0.13795717063124452,0.07971677077496121,101.0,13.343399999999999,0.1321128712871287,18.75,90.6,115.0,0.0,1.3513513513513513,81.0,140.0,4.111111111111111,0.0,5.8551126366470045,19.218690563383362,0.3046572094668368,353.5158751321394,3.282377599893477,3.255379031142749,252.33199761813478,0.3783783783783784,0.359375,0.4782608695652174,0.05555555555555555,50.559284116331106,50.66250380312629,50.472047948355694,56.25,0.56836135304841,0.43163864695159,4.414307546049676,3.8468962958612636,0.4862844507304063,0.513715549269594,13.401980626753515,13.774795180009178,0.4932559212290049,0.5067440787709951,9.977454480752785,10.112951927165362,1.2469294862306917,1.7081705229687936,1.5995907482393728,1.746864673298529,-0.2010402097050985,-0.39855472165443384,-0.4137826563104516,0.0011749358466678107,0.21345276562482152,0.47293884403032926,1.1557707025080584,4.899511514689118,0.932228081459799,1.6470358823489595,1.7268846264740376,1.9544428425675953,0.9230268516475466
1,82.73645471468947,94.39024390243902,16.60712036607664,8.393854306780455,8.442123218980191,0.17594106847781452,0.08892713865064564,87.5,14.0847,0.160968,24.75,79.2,108.8,0.0,2.4390243902439024,73.0,135.0,3.5652173913043477,0.0,5.969482575753297,22.80420215228915,0.26177116550223456,427.66276924068103,3.8201304489797354,3.3380715537722123,348.46010802659606,0.5,0.4657534246575343,0.7352941176470589,0.2222222222222222,52.45901639344262,52.5038170028299,52.38965529504792,47.94520547945205,0.6504292973541264,0.3495707026458736,4.816637831516918,3.5311117229563838,0.5467303608676773,0.4532696391323227,16.861704655962054,15.352998140349545,0.5533864862462115,0.44661351375378866,12.39994120762055,11.139643214609178,1.2705850882062135,0.6765855826806946,1.3822940055432063,1.1266685699547694,1.0,1.1343778715491455,-0.8778168529332613,0.0011583013717189825,0.05851541431165161,0.5427877590847223,0.6794169877480433,5.096770565773521,0.7101052088420736,1.3637622210375315,1.602890637948149,1.953359251495646,0.6202489760603008
1,74.46569287658066,104.75342465753425,15.410837476267767,11.333946061868009,11.397627282387841,0.14711535710311846,0.10819642507079437,100.0,13.343399999999999,0.133434,23.0,92.0,120.0,1.36986301369863,2.73972602739726,81.0,149.0,3.8421052631578947,0.0,8.059339540813243,19.910831643728844,0.4047716180329227,504.1255698358229,2.470528948792708,3.4095088358803443,196.76114388148002,0.3698630136986301,0.3529411764705882,0.375,0.05555555555555555,54.32595573440644,53.727373791182266,54.94652149231671,54.41176470588235,0.7499189101524488,0.25008108984755106,6.988924840240823,4.035930177092537,0.42622990843893865,0.5737700915610611,12.99904240760088,15.081979751687367,0.4719063309446935,0.5280936690553064,10.435999567294484,11.039810814155148,1.2512824705598642,1.6267251252335138,1.5262703372625737,1.4233364465445955,0.07780616937655083,0.6891960291585617,-0.5632767571615409,0.00035363108340844544,0.14023763568207873,0.5824373664501166,0.8972425369034609,5.114434237455115,0.9246762667085107,1.4992109221443592,1.750652180571756,2.1598242848476663,0.8479211724493175
1,63.72034150644159,122.5079365079365,20.4070457597631,13.409192802436067,13.518031517099782,0.1665773364686545,0.10945570699060278,118.0,20.7564,0.17590169491525423,32.0,105.0,143.0,1.5873015873015872,4.761904761904762,88.0,168.0,5.7272727272727275,70.3125,9.558691754034728,27.46345102591399,0.3480513699831579,824.7141362966208,2.8731391002666924,3.623273548762827,315.62525988325154,0.3968253968253968,0.3684210526315789,0.5714285714285714,0.14285714285714285,50.72992700729928,50.4139127489301,51.05346862708085,64.91228070175438,0.7425547183351273,0.2574452816648727,8.237260407222381,4.8502154760313925,0.39207479378310706,0.6079252062168929,17.196480462917183,21.41313153047176,0.4299474668487515,0.5700525331512483,13.482792724949194,15.524928214088757,1.3332568442019852,3.0947108024017336,1.7798800000149948,2.069228591722827,-1.4974377177228888,-0.40799647757090884,-0.4065022193727196,0.0031504572866872145,0.5777778609781056,0.6090414783835403,1.4240346891027378,5.280862415866151,0.9423151973133876,1.7219466118130513,1.624308727852651,2.5020510139831833,1.0436520501349063
1,83.32493294831025,93.23170731707317,10.309169813048323,5.51988548816632,5.534181104176765,0.1105757913237361,0.05920609679916786,90.0,8.8956,0.09884,15.0,85.0,104.8,0.0,1.2195121951219512,80.0,122.0,2.8275862068965516,0.0,3.9132569870778457,13.781249562582227,0.2839551645376785,169.424744509191,3.5216827333573937,2.9359469493626413,194.13275451453984,0.4146341463414634,0.39473684210526316,0.5666666666666667,0.10526315789473684,44.31137724550899,44.36070625466558,44.255668602366185,55.26315789473685,0.5113452188006484,0.4886547811993518,2.8084693339967237,2.745450782658469,0.39842066193383874,0.6015793380661614,8.698803563272572,10.688950185765169,0.40690315336817473,0.5930968466318252,6.463616767429965,7.803561881402916,1.4033818226272983,0.6050333960762808,1.3044019148816446,1.2238046937416374,1.0,1.300727235232734,-0.6332111940641468,0.00044797447773987513,0.03600702331873463,0.5559777360547109,0.6847083119140807,4.661486072671452,0.8877965339575831,1.4622343903277524,1.5927174013577061,1.9786844931273018,0.7753112200753761
1,90.11728857545408,86.6,5.969585836235189,3.343617095437047,3.3625422674682803,0.06893286185029088,0.03860989717594743,85.0,5.9304,0.06976941176470589,7.0,82.0,91.0,0.0,0.0,76.0,104.0,2.25,0.0,2.377676439353211,8.136452798799294,0.2922251868411364,60.776786896415665,3.4220185152747775,2.4907078463433887,111.37236850460185,0.34444444444444444,0.3132530120481927,0.38461538461538464,0.047619047619047616,50.20242914979758,50.2115262658547,50.19294658725494,53.01204819277109,0.520603015075377,0.47939698492462296,1.7155704060696018,1.646276791043132,0.4692867794017655,0.5307132205982343,5.573837063996447,5.927411284119596,0.473324223839664,0.526675776160336,4.123762931726456,4.349967344925453,1.503402012974282,0.5243835296096935,1.7204233316570408,1.4811821515447017,0.9825971152778474,0.686341669907859,-0.9562332083359097,0.0001746961818612095,0.022541661926348294,0.6637244952977168,1.1058325366415969,4.3526824656547225,1.0049317253959833,1.7407259740914676,1.6226768785723313,2.2179572409200095,0.9377121139142864
1,78.63995869540248,99.50649350649351,14.505555538830246,7.936425020452417,7.9843157656504316,0.14577496430304474,0.07975786042480242,97.0,14.825999999999999,0.15284536082474226,20.0,86.0,112.4,0.0,2.5974025974025974,82.0,153.0,3.347826086956522,0.0,5.645763821026081,19.782206695775525,0.28539605858186334,350.87087052829565,3.5039026291008106,3.252117424332957,277.25970420297404,0.36363636363636365,0.34285714285714286,0.4583333333333333,0.0,52.579852579852584,52.745892934139604,52.41941003807794,58.57142857142858,0.711092542302068,0.28890745769793197,4.763752022653292,3.0364452901377956,0.32245806626270035,0.6775419337372998,11.233403475673617,16.28331502204357,0.3517614327218802,0.6482385672781199,8.627939701360036,11.712522104720012,1.4451136237572293,1.8378344732083365,1.8450820725287334,1.9929030604165887,-0.011891838266159027,-0.16230034360974077,-0.419567844633036,0.0025089947267510253,0.2944129929597555,0.4608315603887547,0.8034952377288106,4.885974606701909,0.827339677994761,1.296455717659771,1.6905857188235436,1.7140471165385,0.651094705526743
1,73.72831535199168,105.91780821917808,9.939753831986335,7.2791559339741525,7.325419865975776,0.09384402867757403,0.06872457102691581,104.0,8.8956,0.08553461538461539,13.0,97.0,116.0,0.0,1.36986301369863,91.0,130.0,3.3181818181818183,23.4375,5.17985406227012,13.061605414103589,0.3965710108404474,212.55139347116886,2.5216164890134407,3.0344340664766736,131.74543834076334,0.4931506849315068,0.43333333333333335,0.6153846153846154,0.10526315789473684,52.493438320209975,52.41027132651864,52.56885810478248,55.00000000000001,0.6359108781127131,0.36408912188728715,4.133340905642011,3.1275693662723247,0.3810264909141604,0.6189735090858397,8.062582012620046,10.276201014164519,0.4157037284873844,0.5842962715126155,6.406626871938065,7.595459085017869,1.3728875470414987,1.2222853962581688,1.5904016244526908,1.6263083682651018,0.26610953336696497,0.2313398665295221,-0.47062327348233585,0.0005100689690832109,0.09459695113923916,0.36625968792432184,1.9810014688665831,4.596976189361727,1.1605352637284718,1.7873896020241884,1.6978511820305804,2.464846143745073,0.8479211724493175
1,70.32408582471574,110.76811594202898,16.838458193650062,11.302654555457314,11.383904584196477,0.152015388638212,0.10203888058701488,107.0,14.825999999999999,0.1385607476635514,21.0,96.6,121.4,1.4492753623188406,4.3478260869565215,90.0,166.0,4.0588235294117645,39.0625,8.049636127865952,22.510779292868918,0.357590291439442,569.2678428393779,2.796496504350287,3.4622867617658635,251.80526241083507,0.3188405797101449,0.296875,0.3157894736842105,0.0,48.32347140039449,48.20359265737626,48.53309922145217,59.375,0.6868884540117414,0.31311154598825847,6.673069065000649,4.505386494262903,0.348263024183089,0.6517369758169109,13.284469419945125,18.173003510779367,0.3866708809271608,0.6133291190728394,10.512063986575752,13.239270449414608,1.3022592130949437,2.4095891665113243,1.6294707717890418,1.8844163520775101,-1.1171643665285185,-0.6249106407744218,-0.3941954156203374,0.0016182054102087179,0.33671028942508946,0.5956156531489012,1.0546491652469936,5.057374818908882,0.9052133868723862,1.78560141170397,1.6621927445450306,2.550232036848071,0.8852933995330681
0,52.59755961234168,148.5,18.582618908275446,14.535284992180978,14.66354690527286,0.1251354808638077,0.09788070701805372,152.0,18.5325,0.12192434210526315,23.25,135.0,165.60000000000002,0.0,15.384615384615385,99.0,176.0,5.2,70.3125,10.368693452965452,24.1338262326439,0.4296332190765734,786.1403522633143,2.327566760664683,3.6024701989680903,224.69236698703725,0.5192307692307693,0.5208333333333334,0.72,0.0625,53.05410122164048,53.169598579102924,52.91084350752864,47.91666666666667,0.5358700696055684,0.4641299303944315,7.598684096605148,7.071774883294857,0.4644886849332209,0.5355113150667794,16.448024752601963,17.66080548461038,0.4756324666715877,0.5243675333284123,12.81166496327091,13.452026805750203,0.9602416996115409,0.8547385281719833,1.1168438703303014,1.3276924105868602,0.29379814909001567,-0.5816194355276263,-0.2533180811358797,0.0008249771154533467,0.07600203228730597,0.3845293512115555,1.568615917913845,5.026986833359288,1.3111728176766553,1.6015149008419245,1.801699609756023,2.566158222786298,1.0962384073348252
0,52.89088720990294,147.03846153846155,14.646101721138724,16.941074346097416,17.090371099356663,0.09960728348145613,0.11521525843539963,146.5,12.6021,0.08602116040955632,16.0,133.4,158.0,1.9230769230769231,21.153846153846153,118.0,190.0,4.0,46.875,12.084717297349687,16.558073677863877,0.7298383575563792,628.6315570799944,1.370166406912576,3.505366288618704,90.7492652663698,0.5769230769230769,0.5918367346938775,0.9310344827586207,0.05263157894736842,46.980854197349046,46.9839058396857,46.99792824127864,51.02040816326531,0.49443191910910683,0.5055680808908929,8.507055894961546,8.602325267042627,0.3645068178701896,0.6354931821298104,9.996837639150932,13.199736404111402,0.4097275957632784,0.5902724042367218,9.281884581903203,11.140759425147458,0.6505882850069405,2.0429805415015583,0.8983998126148829,1.1275472403791662,-1.1072495786780436,-0.6495791001347204,-0.38783670568107154,0.0006322028086345326,0.20659787777099062,0.241416683297635,1.466337068793427,4.810734669939354,1.6055477741011852,1.8788204259927712,1.9236848202195513,2.885853248728138,1.3154860888017905
0,50.565060006778836,155.6122448979592,17.970828591695735,21.964934175483734,22.190623219397157,0.11548466898270046,0.1411517081440922,157.0,17.7912,0.11331974522292994,23.0,140.6,168.4,4.081632653061225,26.53061224489796,121.0,210.0,4.454545454545454,62.5,15.691140157191386,19.887248667788818,0.7890050765346024,980.3453167238848,1.267418968192335,3.6983491884420743,100.82190474685316,0.4897959183673469,0.5106382978723405,0.7916666666666666,0.0,51.68831168831169,51.60906923986005,51.789619493123,53.191489361702125,0.6580015545383884,0.34199844546161157,12.732100493584056,9.179069623275344,0.2684061237046851,0.731593876295315,10.303171151217308,17.0102123385686,0.4179414448850382,0.5820585551149619,11.581487787629014,13.667527994339862,0.7500161072817856,2.510789751984174,1.1070585546480878,1.8253448336763414,-1.3603894448746061,-1.9414311713171353,-0.21392018050869394,0.00849821714774383,0.6595675798557452,0.31782656236765217,2.5649493574615367,5.109508058356771,1.5102289730205685,2.0622314927660685,1.9399295409238526,2.3552449798039725,1.2604450670462712
0,49.52730075337141,157.85416666666666,18.704862928209888,21.322248893405696,21.552723470403325,0.11849457840227988,0.13507561658749814,161.5,14.825999999999999,0.09180185758513931,22.5,143.4,171.0,2.083333333333333,33.33333333333333,112.0,198.0,4.363636363636363,62.5,15.24007691896065,21.819734933368053,0.6984538064050726,1044.6877497981889,1.4317339111472231,3.7259566120798255,124.96021774538696,0.5416666666666666,0.5454545454545455,0.8333333333333334,0.058823529411764705,49.86449864498645,49.732109370567315,50.00581632552614,45.45454545454545,0.5542867839760389,0.4457132160239611,11.346326737529754,10.174563338563223,0.5546789886666621,0.4453210113333378,16.250634704807418,14.56082773242479,0.5545503908017323,0.4454496091982678,14.014675500058392,12.560641770701562,0.6348071791896296,0.7149282322078818,0.7029962680513777,0.7434355306101628,0.15456826678120894,-0.1564574673807968,-0.4434359132329993,1.4458549417514316e-05,0.018572538806017894,0.229788999105915,1.2992829841302607,4.985902344426084,1.3811837422400453,2.1801684691263756,1.8800752215938703,2.9085349466997843,1.1635338543169074
0,51.23233878001872,152.31372549019608,15.061859375360573,15.210522673465235,15.361547541089175,0.09888707880321694,0.09986311230004209,153.0,13.343399999999999,0.08721176470588235,18.5,136.0,166.0,0.0,17.647058823529413,119.0,188.0,4.636363636363637,54.6875,10.86225443582369,18.465632722350318,0.5882416594735095,630.135630889038,1.699981604320619,3.506404147362969,125.56494376054566,0.5294117647058824,0.5510204081632653,0.9259259259259259,0.0,48.67986798679868,48.72987184044278,48.64179127047897,48.97959183673469,0.4945539419087137,0.5054460580912865,7.640520337019472,7.724199978387564,0.4981769212353365,0.5018230787646636,13.03334812184905,13.080956714683698,0.4972452427529791,0.5027547572470211,10.682830015630557,10.741850256765614,0.9319727874112741,0.23134223666788456,0.8940244573122502,0.888512416506553,1.0018733471308647,0.42005277348619297,-0.5238263487251156,4.612665628135763e-05,0.0048632236894860315,0.36125607530492054,1.6582280766035322,4.922137841844233,1.4942306888596761,1.8757685254541687,1.868065472950573,2.8864827547783163,1.2234642894448322
0,55.42616019380874,140.40740740740742,15.449880647421415,14.061187045625823,14.157034489760456,0.110036079525291,0.10014562126929497,141.0,18.5325,0.13143617021276596,21.0,126.80000000000001,155.4,0.0,18.51851851851852,111.0,170.0,4.153846153846154,31.25,10.010535089201452,18.886501196120452,0.5300365051869826,593.9620198501918,1.8866625038349516,3.480728785419694,142.5298145414177,0.48148148148148145,0.5,0.7307692307692307,0.05263157894736842,45.599999999999994,45.52699783205252,45.64344295597407,50.0,0.4350605973852465,0.5649394026147533,6.62091673875593,7.5447383601472175,0.46118695101544677,0.5388130489845534,12.825963977781997,13.863425820182329,0.45543238455263246,0.5445676154473674,10.206416864426513,11.16059255583625,0.5570421899409388,0.6287821142843502,0.6265779737627721,0.6273935059830302,0.2949466014762745,-0.03131140657501463,-0.49870299710864663,1.6781261222480966e-06,0.013675097084308176,0.4283005449529038,1.8325814637483102,5.0092456038951285,1.4302961940430763,1.8255844831205739,1.9063924099691858,2.5485027392010196,1.0657199078080497
0,47.5189748752959,165.04347826086956,16.034624371776264,16.975145229292018,17.161649752346722,0.09715394113563068,0.10285256593090528,167.5,13.343399999999999,0.0796620895522388,17.25,157.0,178.0,2.1739130434782608,13.043478260869565,123.0,199.0,3.5384615384615383,62.5,12.135118916232797,19.314946847381478,0.6282760709682176,736.3553160845113,1.591656989989973,3.5740575364983895,122.97108064367809,0.5652173913043478,0.5813953488372093,0.88,0.0,51.749539594843476,51.41270421394986,52.069537845121474,58.139534883720934,0.7046348422919719,0.2953651577080281,10.189678378366288,6.597175704248544,0.24503108201388762,0.7549689179861125,9.561017349096245,16.78255400609372,0.3751639188130052,0.6248360811869947,9.88034913867584,12.751016552420039,0.924369498922416,0.6964336611523241,0.8210341805139452,0.6024121208236825,1.0,1.7324591517897163,-0.8139165607367816,0.0007334322599303024,0.0453469062691919,0.2982203118154252,1.4469189829363256,4.849223912390626,1.2573679674622322,1.959322921645658,1.8430737423734205,3.3183959364563167,1.2007743382732636
0,50.17000693020928,155.08,15.015420644885616,15.021752934477714,15.162161998296453,0.09682370805317007,0.096864540459619,158.5,12.6021,0.07950851735015772,20.25,142.6,167.4,0.0,20.0,119.0,179.0,3.3333333333333335,46.875,10.721267566444395,18.233906332326445,0.5879852276874387,614.151796898577,1.7007229993396709,3.495245836815704,124.04329546877139,0.5,0.5306122448979592,0.8076923076923077,0.0,47.29950900163665,47.28489013384207,47.32305592891783,51.02040816326531,0.3991136836393236,0.6008863163606765,6.780025811160309,8.319154604485561,0.48344579307869673,0.5165542069213034,12.678083628497811,13.105019482811544,0.4617478732477349,0.5382521267522651,10.166183022432367,10.976107437935442,0.8024541601392078,1.773587454664939,1.0388510024843585,1.2739380586055724,-0.9371146782812101,-0.8289113546088411,-0.3674511056655924,0.00047935576390098706,0.16120893069854716,0.5233608216680405,1.791759469228055,4.94146788019945,1.3898737997351607,1.7868788185429245,1.8785174983869692,2.9330812657686156,1.1287712379549448
0,48.655449772663644,160.72340425531914,12.529447275465792,16.97120323166377,17.132687632337383,0.07795658220107125,0.10559260681601765,165.0,10.3782,0.06289818181818181,19.0,148.2,171.0,0.0,29.78723404255319,130.0,185.0,2.611111111111111,46.875,12.11463960477666,12.363076161454035,0.9799049562234391,470.52956443816606,1.02050713556344,3.3795570262882437,50.46642976111243,0.5957446808510638,0.6046511627906977,0.9230769230769231,0.0,46.51539708265802,46.627017791703956,46.39321458850406,46.51162790697674,0.4515812514152013,0.5484187485847988,8.153390569436606,8.985172971809353,0.5896634648583342,0.41033653514166574,9.493550276340319,7.91947948570559,0.5219188293330341,0.47808117066696576,8.84887774317114,8.469105285029967,0.2578905845018224,1.5778747931627128,0.4254689245261117,0.6801245089436834,-0.8867717527584382,-0.8922832589600488,-0.33860849699795476,0.0004037128530647632,0.12275057381915122,0.3872039782665073,1.6094379124341003,4.655340713241671,1.3692523254194549,1.7619545098076237,2.0124861067329287,2.7132211160831137,1.063644673725505
0,50.08241798135378,155.9795918367347,14.912927551733944,17.768183174802463,17.950236569689032,0.09560819704762047,0.11391351243822068,158.0,13.343399999999999,0.0844518987341772,22.0,141.6,167.4,2.0408163265306123,14.285714285714285,123.0,199.0,3.769230769230769,54.6875,12.692734002329864,16.811217126567477,0.7550157675538555,670.3540056551318,1.3244756506739706,3.5332743187829596,89.06419096932743,0.46938775510204084,0.4893617021276595,0.8260869565217391,0.0,51.72955974842767,51.43169980691079,52.038551967400096,48.93617021276596,0.6179886498614228,0.3820113501385773,9.981365616711376,7.847617879521066,0.3429618685537905,0.6570381314462093,9.845144067108803,13.626817661305521,0.44286013902205185,0.5571398609779484,9.91348882272522,11.119246061614223,0.8451315951839944,0.5156351794172163,0.8963879218636586,0.6694079877681667,1.0097633343705326,1.1477188722879554,-0.9401948182667255,0.0001579232954055557,0.020276577434808048,0.1631343889372494,inf,4.956247343982751,1.508252552741121,2.093725755667903,1.9681218874801014,3.2884748400335497,1.2604450670462712
0,55.67475284246416,140.34545454545454,20.87903270589916,17.899927581066002,18.06553022333346,0.1487688559171465,0.1275419117707773,140.0,19.273799999999998,0.13767,24.5,125.0,157.0,3.6363636363636362,18.181818181818183,98.0,186.0,5.5,70.3125,12.774258926649614,26.10925547623697,0.4892617079133472,1047.804056085518,2.0438959023891345,3.72725018524584,213.45840112924728,0.45454545454545453,0.43999999999999995,0.6818181818181818,0.0,51.23076923076925,50.810325445797766,51.670418471496525,60.0,0.653392671367472,0.346607328632528,10.327194362276058,7.521666816478459,0.3416476954472226,0.6583523045527775,15.26102611672839,21.184765832738012,0.4018723755680783,0.5981276244319219,13.029770940651497,15.896065159121251,1.184895593888138,2.3032812289296962,1.5876492626077208,1.6946744894424903,-0.785268134403081,-0.18944438682766274,-0.4535335826600286,0.0010082345631511266,0.3043991762786091,0.3688961716475565,1.236762627148927,4.999186077003681,1.0546657234652963,1.889389587203001,1.76572820419488,2.323629083611578,1.051156311549938
0,50.51474855538341,154.28571428571428,17.678848001684575,19.977591613271773,20.188462666154027,0.11458512593684447,0.12948439008602075,154.0,17.7912,0.11552727272727273,23.0,142.0,168.0,2.0408163265306123,22.448979591836736,111.0,212.0,4.9,78.125,14.27539885296896,20.799271800878234,0.686341281061878,932.7950959003759,1.4570010978399006,3.67675636411236,121.2182473926003,0.46938775510204084,0.4893617021276595,0.6956521739130435,0.06666666666666667,50.520059435364054,50.28188340135645,50.780195333250575,42.5531914893617,0.6100120060552279,0.3899879939447722,11.149849727066737,8.915084037980535,0.4145985426000353,0.5854014573999646,13.392511124582816,15.913841560878192,0.47717612549456356,0.5228238745054364,12.322307072099864,12.898237798803939,0.8630675203030547,1.6194731147041104,0.86440021281797,1.1015205832275878,-0.6624452429662462,-0.10303607021219507,-0.3535817802366287,0.0031172541470460145,0.1650049284301828,0.38268730916031846,1.5686159179138452,5.027875405295546,1.3354019637668462,1.786028093154826,1.9130728559769121,2.474957783279852,1.2604450670462712
0,50.36411759926251,154.85714285714286,15.517463280661136,13.696106502701172,13.840466416934722,0.10020502118508114,0.08844349217611458,156.0,17.7912,0.11404615384615384,23.0,140.6,169.4,0.0,14.285714285714285,119.0,183.0,4.454545454545454,54.6875,9.78668765819922,19.70167577564899,0.4967439201438609,605.74350822411,2.0131096918315423,3.4892588784460283,158.6465377971268,0.4897959183673469,0.5106382978723405,0.75,0.0,50.56603773584906,50.538753833888386,50.59351802581366,46.808510638297875,0.4655708573967124,0.5344291426032873,6.678004543338606,7.154822804353866,0.47298670747304955,0.5270132925269505,13.54963622552176,14.302565732232194,0.47151888299431394,0.528481117005686,10.681488344908276,11.30829067292057,1.0097330377152618,1.0275965488710659,1.1808652698863393,1.215849427032706,-0.022925879913092473,-0.28350807262861544,-0.46595535749433875,7.875288822448385e-05,0.04975738989951259,0.4493799722897487,1.6582280766035324,4.843802956139344,1.2770974890224123,2.306849356221926,1.7998642891926528,2.712890591881004,1.031273236674222
0,49.07014086872785,159.22916666666666,20.43176457250081,20.02764047457222,20.244161799307022,0.12831672111475062,0.12577871814463779,165.0,13.343399999999999,0.0808690909090909,18.25,145.4,172.8,2.083333333333333,16.666666666666664,114.0,209.0,3.2,62.5,14.314784087727656,25.391640950463632,0.5637597079942279,1141.8930847442214,1.7738053745590465,3.764595552856479,180.15931674722387,0.5,0.5217391304347826,0.9166666666666666,0.0,50.000000000000014,49.70757862683144,50.30044237189869,47.82608695652174,0.627625716104392,0.3723742838956079,11.34057739500833,8.735235991436463,0.44517623720532057,0.5548237627946796,16.941690966086103,18.9133428395643,0.4891782911868465,0.5108217088131534,14.415782816804251,14.731240361778521,1.0239342580716375,1.504182863544984,1.0402146900291478,1.2468114079534227,-1.1196044098448894,-0.7288398971634455,-0.36265186040121616,0.0013069795012844564,0.10299424667901119,0.40542842364018483,0.8909729238898653,4.928508854797679,1.1978221227018035,1.8622484527527305,1.8445771535036415,2.8973022328408113,1.1635338543169074
0,49.758590038143666,156.79591836734693,14.850616698525709,14.230249470757707,14.37985194096141,0.09471303113728488,0.0907565044991706,159.0,16.3086,0.10256981132075471,21.0,144.8,170.4,0.0,18.367346938775512,118.0,183.0,3.769230769230769,54.6875,10.16809081991235,18.584458350960393,0.5471287151818924,593.66192680027,1.827723481242528,3.4805093072611744,135.86900365689638,0.46938775510204084,0.4893617021276595,0.9130434782608695,0.0,50.696864111498265,50.71553474754148,50.6752089935697,46.808510638297875,0.4945473251028806,0.5054526748971193,7.151104660983534,7.229519862813056,0.6164651679581921,0.38353483204180805,14.59164245302599,11.509390197644322,0.5883742426876268,0.4116257573123733,11.490307379467504,9.610723702418037,0.927591904911658,0.3852572575689406,0.9433111680208598,0.9237752097464562,0.6598458324907899,0.24698223157695232,-0.5507088650261383,3.397845960503513e-05,0.005264158535063984,0.35246497968390855,1.2992829841302609,4.721353976547508,1.390712614797765,1.5768761043746433,1.9099460271129445,3.6047398116837046,1.2604450670462712
0,50.074843714035524,155.83673469387756,20.540962062400574,19.053105608622793,19.245048640185885,0.13181078327103563,0.12226324971483982,159.0,19.273799999999998,0.12121886792452828,26.0,134.2,174.4,2.0408163265306123,26.53061224489796,116.0,191.0,6.125,70.3125,13.608304397740383,25.80899820407356,0.5272697642170597,1103.3798163559927,1.89656238203777,3.749695145297315,195.7935004477051,0.4489795918367347,0.46808510638297873,0.7272727272727273,0.13333333333333333,52.00553250345782,51.76866922035052,52.21564150814471,57.446808510638306,0.630932568149211,0.369067431850789,10.814686625534309,8.27132961603038,0.39041683219856654,0.6095831678014335,16.12632522284042,20.15058369142326,0.4427787622177054,0.5572212377822948,13.729818134289504,15.402287439242173,0.9599874723365981,1.574814962229997,1.2288183714665775,1.3462909118195547,-0.43748972223938054,-0.44155611300711417,-0.42540549641042796,0.00037456212329954505,0.1356173789829897,0.4147564707513922,2.1400661634962708,5.119512650105201,1.3689207174077964,2.187043689741701,1.7474245354433395,3.611257554515514,1.2604450670462712
0,48.781292617454206,159.6875,10.2566143681954,11.937781967261436,12.066536168144207,0.0642292876286209,0.0747571473487996,161.0,10.3782,0.06446086956521739,13.75,152.0,170.2,0.0,6.25,129.0,178.0,2.823529411764706,39.0625,8.532329549927507,11.895571669613066,0.7172693996475281,318.86203374568197,1.3941763032012908,3.2105729217217207,66.3380965392286,0.6041666666666666,0.6136363636363636,0.9629629629629629,0.125,49.5575221238938,49.60112927413418,49.51776128546319,45.45454545454545,0.44401313825022376,0.5559868617497761,5.68560348217511,6.362252814024701,0.599097104490477,0.400902895509523,9.20733464784126,7.53190640074363,0.546412483528336,0.45358751647166423,7.651833057309204,6.971652418872017,0.6411269172571317,1.223680141884282,0.7775399643740804,0.897988422163742,-0.14023718426854082,-0.14928708415252778,-0.40156867496093446,0.00035518095512701505,0.07642439300592718,0.39533573362695673,inf,4.621115365169273,1.5212369947363993,2.038794629949748,1.9477290648045018,2.9168130452212524,1.0471804688852167
0,50.070724220289534,155.9795918367347,20.981628666445285,21.31363022418596,21.530522207434323,0.13451521714716982,0.13664371071373962,162.0,20.7564,0.12812592592592592,27.0,139.2,170.8,2.0408163265306123,26.53061224489796,110.0,209.0,4.083333333333333,62.5,15.224378255364364,25.646632885601072,0.5936209374257417,1226.6475437128306,1.684576700303961,3.7956899034878764,172.8148808013316,0.46938775510204084,0.5,0.8333333333333334,0.0,51.842439644218544,51.68484433656009,51.97037222988287,52.083333333333336,0.6358174730566384,0.3641825269433616,12.144519821801422,9.191230788325104,0.35075529149244755,0.6492447085075523,15.18911502493938,20.664959790136418,0.42507697380127796,0.5749230261987222,13.751337697529046,15.992487088195668,0.9253817635879231,1.1351135603668618,1.0437192382870193,1.3461816618879179,-0.41399750572536753,-1.043594820702599,-0.23353994334880065,0.0005862046698008093,0.08749576219370189,0.3666662243371297,1.5581446180465497,4.956247343982751,1.340256129460365,1.9897237279528708,1.8948659404501358,2.6412813694686417,1.031273236674222
0,48.614020426288434,160.53191489361703,10.154996764989503,12.535167920000461,12.668802260854722,0.06325842915235343,0.07808520771902208,162.0,8.8956,0.05491111111111111,14.0,152.0,169.8,0.0,8.51063829787234,139.0,183.0,3.1333333333333333,39.0625,8.958195988161837,10.870604781206,0.8240752164635317,305.931459771454,1.2134814638540383,3.1925942489361017,52.76510961150626,0.5319148936170213,0.5454545454545455,0.9583333333333334,0.05263157894736842,51.67364016736401,51.52026247689045,51.841796072235866,45.45454545454545,0.4716380741560599,0.5283619258439404,6.1544924874255695,6.514087298565573,0.602070608360072,0.3979293916399281,8.434851087923622,6.857356300625803,0.5492939026135043,0.45070609738649575,7.38324084170441,6.687924519874073,0.3970402995217887,0.719224130807743,0.43035868093149554,0.7198247826871893,-0.4624388015866989,-1.3627887017328535,-0.09753004751022258,0.0001674855173984755,0.03169603126262325,0.27950610889111305,1.1526795099383855,4.434818841399112,1.4075739436711052,1.9345189495707984,2.038943231648278,3.8624954967765204,0.9454619322004489
0,49.98672163035988,156.16326530612244,15.120828541528832,15.242484486898235,15.398028795275772,0.09682705155971155,0.09760608205149157,158.0,13.343399999999999,0.0844518987341772,18.0,147.6,168.0,2.0408163265306123,10.204081632653061,110.0,197.0,4.083333333333333,70.3125,10.888050578045222,18.53002164401487,0.5875897388151202,633.8345795386754,1.7018677045254544,3.5089460388728293,126.1425816004263,0.4897959183673469,0.5106382978723405,0.7916666666666666,0.05555555555555555,48.091603053435115,47.95259032138912,48.26498125100409,44.680851063829785,0.5566714490674317,0.44332855093256807,8.126656950523342,7.252292374198041,0.5288023608873466,0.4711976391126534,13.474809042186989,12.71971789798246,0.5359589435387307,0.4640410564612692,11.126837644067912,10.353428612906605,1.0469998240053784,0.5339685160751086,0.9610227453294575,0.7854378987892319,0.6858260729362442,1.025213527031167,-0.8288299614195375,0.0006610629198150229,0.02967932797354295,0.4428333133217066,0.9985288301111273,4.828397088748252,1.3457053935751149,1.745852098301526,1.8143808850322622,2.480023997448663,1.2604450670462712
0,47.03990058559355,166.19565217391303,19.02234892052257,19.57152126035287,19.78806905101346,0.11445756054205865,0.117761933025014,165.5,18.5325,0.11197885196374621,25.25,151.0,184.0,2.1739130434782608,26.08695652173913,128.0,207.0,5.111111111111111,70.3125,13.992277812559268,23.23624824112602,0.6021745708411835,1021.419864175062,1.6606480054497987,3.716174409553106,154.34891718304925,0.5,0.5116279069767442,0.7272727272727273,0.07692307692307693,51.37481910274963,51.3019742265258,51.458641934432904,44.18604651162791,0.55038579799269,0.44961420200730984,10.38300622083114,9.384464919119354,0.4811359681178436,0.5188640318821566,16.117583165386606,16.737584808749396,0.49957079145780614,0.5004292085421939,13.55697800534787,13.568620546103064,0.8540043658112838,0.4864204131277807,0.8540043658112838,0.7985381659285653,-0.11015396594478055,-0.1543447265016682,-0.6140293424900894,0.0006197014684393443,0.02261796228091487,0.0814750014133141,0.2876820724517809,4.969001629875993,1.3998819116678403,1.3586225257080915,1.9486729451175928,3.3399871976767863,1.2007743382732636
0,47.88076830859104,162.95744680851064,25.101496098499364,21.78401887303786,22.014191733542237,0.15403712189965663,0.13367918619046604,164.0,29.651999999999997,0.18080487804878048,39.0,138.4,185.0,2.127659574468085,23.404255319148938,115.0,214.0,4.2727272727272725,70.3125,15.566384257128554,32.17045858854208,0.4838720036982227,1573.2396066019162,2.066662241991731,3.9037649812820954,265.94188828999404,0.3617021276595745,0.38636363636363635,0.5882352941176471,0.0,47.952443857331566,47.72006642452861,48.22517992400141,56.81818181818182,0.677584864171515,0.3224151358284851,12.819689717167277,8.843076387773657,0.43143244529365143,0.5685675547063483,21.13068875217646,24.257625577449755,0.4781672423002015,0.5218327576997985,17.476419135306312,18.256949343410916,1.1610322734154754,3.2013808034373943,1.634417307646728,2.4918435348215424,-1.667848855986092,-1.9542844311397127,-0.2321698729953723,0.015724689152341056,1.1239202748762913,0.32682777930477114,1.2163953243244932,4.979704808940321,1.1633597075655124,1.525251306481937,1.9425284182219027,2.818988881464058,1.181827415250561
0,46.637100060164805,167.67391304347825,19.193811905375576,18.214158107240518,18.39691454147854,0.114471068021169,0.10862845493751638,171.0,13.343399999999999,0.07803157894736841,19.0,151.0,179.0,2.1739130434782608,17.391304347826086,122.0,217.0,3.5384615384615383,62.5,13.00858302518888,23.13772991143568,0.5622238255430352,945.5850843209987,1.77865105420271,3.6826707229827123,164.61579079533058,0.32608695652173914,0.35555555555555557,0.4375,0.0,46.332737030411444,45.50693207449091,47.12539496533133,66.66666666666666,0.6928126465268939,0.307187353473106,10.841314076674049,7.218977515108103,0.28366927609570536,0.7163307239042946,12.323296489317958,19.58292391577185,0.38212320398709215,0.6178767960129079,11.605983958129686,14.758125650883745,1.005393555622453,2.9146699078409175,1.5677178106785286,1.933482580499504,-0.9028949261897079,-0.6215374654868078,-0.37450902455986146,0.006731438403793169,0.730283071611191,0.2924236498186028,0.7731898882334819,4.787164065167291,1.1287365720233393,1.5117559847110627,1.8448017480906216,2.5904526012008415,1.0806969044459374
0,49.87943523306692,157.22916666666666,24.794679922964715,21.11165857197332,21.324244517809284,0.15769771250858705,0.13427316966406774,162.0,31.1346,0.19218888888888888,43.0,135.0,180.8,4.166666666666666,25.0,115.0,200.0,6.857142857142857,31.25,15.078517902223004,31.5235400933731,0.4783256530694286,1493.2877810930402,2.0906259022132163,3.8811136214355852,263.61571779465055,0.3333333333333333,0.3333333333333333,0.5333333333333333,0.0,47.338935574229694,47.3984716651741,47.28713604574038,71.11111111111111,0.6877983578384572,0.31220164216154295,12.514339601120545,8.431308114506262,0.271605125210191,0.728394874789809,16.428728904772164,26.90409720826932,0.34919078227160116,0.6508092177283988,14.603284375075875,19.936366307752074,1.2112013189548914,1.8572162735363484,1.5747438173302222,1.737597464287072,-0.3565690132931696,-0.3669442055406158,-0.41231304114799827,0.0013942288540345976,0.24280134635995626,0.31040491774062806,1.5581446180465497,4.813721875540867,1.0981447592051181,1.5185536908097221,1.90243877846659,2.2836206396936958,0.930827083453526
0,48.88917209223926,160.0,30.737045359741533,28.189329503773948,28.485775537197448,0.19210653349838458,0.17618330939858717,164.0,33.3585,0.20340548780487805,51.5,125.6,185.6,8.333333333333332,18.75,112.0,225.0,6.857142857142857,0.0,20.142485049710185,38.87603343897363,0.5181208901193385,2460.0552993331294,1.930051497768543,4.09791497963643,300.13098626476403,0.3541666666666667,0.3695652173913043,0.6470588235294118,0.08333333333333333,52.05655526992289,51.098851866153275,53.003227609907114,71.73913043478261,0.8385187961872121,0.16148120381278783,18.44999116295299,8.09656395183086,0.23725372037476927,0.7627462796252306,18.936009494271655,33.952518616165285,0.364561476513644,0.6354385234863557,18.69457982250724,24.68124660756763,1.1033502846006833,3.247948995559864,1.887699359866021,2.10385345849054,-1.166007410000411,-0.8545584560352419,-0.43344904771595416,0.005501635235633486,0.845831218722554,0.5136768765819024,0.9409833444645266,5.319235677759417,0.8160702643659881,1.9179291353136767,1.7211992270949132,2.5710738950050995,0.6981203125901446
0,49.41153385650092,157.55102040816325,23.964436519289887,20.916998669343872,21.11315973947048,0.15210587946181406,0.13276333352303754,163.0,20.7564,0.1273398773006135,38.0,130.6,177.0,2.0408163265306123,16.3265306122449,111.0,211.0,5.444444444444445,62.5,14.929258424054376,30.391852065739847,0.49122568745600875,1425.4279655426117,2.035724160067574,3.8609153849514892,247.47771007770484,0.2653061224489796,0.2608695652173913,0.3333333333333333,0.0,46.25954198473283,45.6619965415554,46.91038764900738,78.26086956521739,0.7783915051664205,0.2216084948335793,13.187276266126714,7.036379630027954,0.2544078340921678,0.7455921659078323,15.329302940034944,26.242658846969977,0.3564633144969536,0.6435366855030464,14.29845767812936,19.211816437499134,1.2950540197309974,2.906919266090217,1.9182581504308929,1.88939689707526,-0.6693202242894536,0.37767427777964535,-0.5099284674646128,0.0024048868124545786,0.5563987853023542,0.3815811204698978,0.8303483020734304,5.216551170557515,0.794872718001292,1.5937283057764393,1.751283918768533,2.4103511190697553,0.8021014063021725
0,52.467754380344246,149.80392156862746,22.217128174310144,22.562801244526355,22.77452927446513,0.14830805456673002,0.150615558045922,151.0,23.7216,0.15709668874172183,28.5,129.0,168.0,3.9215686274509802,19.607843137254903,109.0,211.0,6.375,78.125,16.104024088305838,26.93182625270931,0.5979551456034584,1362.542596195946,1.6723662424391326,3.8413201981608793,180.15950828906819,0.3137254901960784,0.32653061224489793,0.4375,0.0,52.99727520435968,52.73950505116902,53.26653954033448,63.26530612244898,0.7735130038500825,0.22648699614991752,14.174207676808821,7.669845540312067,0.3248409210361939,0.6751590789638061,15.3497451949868,22.129360310571606,0.4431443213535141,0.5568556786464858,14.773673219892311,16.56102530593059,1.0704461074990248,2.695363974553646,1.5258830075653167,1.7786885796133967,-1.1497092904242283,-0.5508214201567836,-0.40620726015678654,0.002109059360885906,0.4570767159332654,0.3825033850886417,1.9459101490553135,5.11821627321678,1.0405094879213623,1.9311054412534179,1.7940580467635692,2.144310384454044,0.8897922105053325
0,57.13191303866833,136.46428571428572,26.938289265865205,22.204422163982642,22.3964433203282,0.19740175332222604,0.162712332005107,129.0,28.1694,0.2183674418604651,44.5,112.0,166.0,7.142857142857142,17.857142857142858,103.0,204.0,4.3076923076923075,0.0,15.836676946264223,34.807053544231174,0.45498470377964384,1731.73403138674,2.1978760861470974,3.9454513015860435,306.00636245642903,0.35714285714285715,0.3584905660377359,0.5789473684210527,0.2,47.25568942436412,46.729708005265586,47.89596458387936,67.9245283018868,0.685437179629015,0.31456282037098504,13.118759539371542,8.887152608202555,0.23344433856516542,0.7665556614348347,16.817403112375533,30.474676847947677,0.31103681692359375,0.6889631830764061,15.081891447958212,22.446463089630843,1.2767918608128792,2.0089116378591814,1.8093454298448726,1.6220735904877641,0.2360752793477623,0.7558550439552802,-0.5932205458059254,0.0019964805181715054,0.3132017792815392,0.5843741111605261,1.2776605201170956,5.124057377298846,0.9813542109059782,1.8074214196500291,1.780714346320995,2.8652436643551487,0.9333248981878292
0,52.272925762834824,150.13725490196077,17.4482315526166,17.487138130637614,17.663013356059224,0.11621520297550565,0.11647434304068413,151.0,19.273799999999998,0.127641059602649,25.5,137.0,166.0,1.9607843137254901,17.647058823529413,116.0,194.0,5.1,54.6875,12.489636520258037,20.965744655976135,0.5957163327703676,822.6402681646234,1.6786513059823602,3.62218007432977,140.77669859058813,0.5294117647058824,0.5510204081632653,0.8518518518518519,0.2727272727272727,49.02597402597402,48.564610635718594,49.45410947093774,57.14285714285714,0.6681491170699804,0.33185088293001963,10.210039077260364,7.195520148264587,0.3537678099185831,0.6462321900814167,12.470086002027378,16.854061946060146,0.43612394101336494,0.563876058986635,11.396226192409985,12.958296845760911,0.914519989868474,2.0295946902152746,1.2671611093357016,1.2920398777318924,-0.24398623192903734,0.35863541682108435,-0.48774200163405435,0.0010283476350841957,0.24733361085231714,0.46415376244610806,1.3581234841531944,5.015370930121947,1.3403376171558339,1.5664555426785642,1.9530514093836173,2.4209405052462634,1.0010162368184992
0,51.9009744539172,150.98039215686273,27.224614007238696,20.228692493584454,20.433425996616027,0.18031887199599658,0.13398224898348146,157.0,29.651999999999997,0.18886624203821653,40.0,124.0,176.0,3.9215686274509802,23.52941176470588,89.0,206.0,6.375,101.5625,14.44861408508068,35.67739809310479,0.40497947881107105,1619.4563190834212,2.4692609189378576,3.9163393484229156,352.3872192027668,0.5490196078431373,0.5531914893617021,0.7692307692307693,0.07692307692307693,49.49238578680202,49.152080526260235,49.787683151989235,55.319148936170215,0.6130987292277614,0.38690127077223846,11.313708498984761,8.987519691443332,0.3917959255397063,0.6082040744602937,22.33176926191355,27.823889309845423,0.4229790900836573,0.5770209099163427,17.701806664396532,20.675399954179994,1.0290033068779456,0.24525676560294007,0.8314822371701236,0.9240045289760286,0.3135267789569607,0.007496812114889728,-0.1227533557394518,0.000506065229594364,0.01654555579501954,0.3576096441690422,1.6094379124341003,5.226251077223192,1.1708892185950222,1.9853046956705505,1.8275715076810355,2.4461858839347097,0.8897922105053325
0,49.65772124263723,157.39583333333334,13.482438669701766,16.030555929357387,16.18924278243551,0.08565943827209593,0.1018486677179556,158.5,11.119499999999999,0.0701545741324921,14.25,146.4,169.0,2.083333333333333,16.666666666666664,130.0,192.0,3.6923076923076925,46.875,11.447523353735516,14.9424272864214,0.7661086873173677,537.381315338846,1.305297820733027,3.4372526719727734,78.01727109371029,0.5416666666666666,0.574468085106383,0.8518518518518519,0.0,47.38562091503269,47.07665411572133,47.6837940583049,61.702127659574465,0.5991058122205662,0.40089418777943364,8.868606086248473,7.254683644557404,0.2543515881823069,0.745648411817693,7.535956414760204,12.902925797075067,0.38200387408372993,0.61799612591627,8.229301701791256,10.466994050524582,0.6225788857879412,1.761715849451964,0.8241667793261173,1.2281169082653471,-0.711583601125243,-0.9977657158335025,-0.2707064229087279,0.002414971204663726,0.24313986006587188,0.36242856871818585,2.833213344056216,4.78778203183594,1.596794125309418,1.7365739463405465,1.9301296615388535,4.281980057989554,1.2798872397485983
0,50.38761443362038,155.06,22.578127396546726,20.521268210800027,20.731622465885955,0.14560897327838723,0.13234404882497117,155.5,26.686799999999998,0.1716192926045016,34.75,135.4,176.2,2.0,22.0,110.0,196.0,6.25,78.125,14.659470830627331,28.250602004301467,0.5189082635617912,1301.0556505009006,1.9271229044147238,3.8212659831479434,217.76952874397546,0.52,0.5434782608695652,0.88,0.0,48.94217207334274,48.823434049317534,49.06570038654422,63.04347826086957,0.667845892900412,0.3321541070995881,11.98132226982203,8.449605513474184,0.3701379962412518,0.629862003758748,17.187374562540008,22.420764243272234,0.433305701674382,0.5666942983256179,14.81482243711312,16.942350819554648,1.109316272713554,0.7818741370030413,1.36558921860542,1.377979856119353,0.7186459408508528,-0.04323822836842606,-0.48415264436111566,0.0008616994545319921,0.07256576050113743,0.29240397556158726,2.4849066497880004,5.188758439731455,1.2864281412059628,2.011996809702328,1.710515449997335,2.3279636838844633,1.3545254855459339
0,51.65430435109328,150.38,18.693980259944208,13.566916543186808,13.683901112616386,0.12431161231509648,0.09021755913809555,154.0,17.049899999999997,0.11071363636363635,27.5,128.8,165.2,0.0,12.0,113.0,192.0,4.545454545454546,62.5,9.675979269817189,24.56723213058042,0.39385711904325077,746.7943633865933,2.5389918111145953,3.580171141307207,249.50400480518022,0.52,0.5416666666666666,0.8076923076923077,0.06666666666666667,46.06060606060606,45.95993610460959,46.191034163078776,52.083333333333336,0.4738884577004105,0.5261115422995899,6.672393373695329,7.0304397681321,0.38187963972927663,0.6181203602707233,15.181667708547195,19.314912895094256,0.39427258063487813,0.6057274193651219,11.726121859892084,14.534320477380628,1.1455327285687666,1.4846283503581081,1.1879854574192836,1.8459200082418417,-0.7446003547583775,-1.5446240301708078,-0.056835520038495006,0.005892655463902183,0.30059077473796497,0.46125203546058824,2.03688192726104,5.108758439731455,1.0688967461682437,1.7443805173594564,1.8013269460529788,2.2966069431192224,0.6772627427729669
0,49.10212111081016,158.52083333333334,16.83333772206951,15.077812358956947,15.231333642013709,0.10619006579830942,0.09511565162701188,161.5,11.8608,0.07344148606811145,14.75,149.4,170.0,2.083333333333333,12.5,116.0,196.0,4.363636363636363,70.3125,10.770179304782687,21.08957373345937,0.5106873870900202,713.5766133246767,1.9581450908708806,3.5604107180472364,165.18578109893176,0.5416666666666666,0.574468085106383,0.8518518518518519,0.07692307692307693,52.2851919561243,51.97124782575101,52.607173381864015,48.93617021276596,0.6371548900327563,0.3628451099672438,8.602325267042627,6.491633411386235,0.5011182352970983,0.4988817647029018,14.929247059951749,14.895895491105643,0.5292857388047839,0.4707142611952162,12.183645139634484,11.48975645585596,1.3444234861746827,0.9875791763244026,1.6030317732713621,1.7393710186465228,-1.0311478994361423,-2.0311478994361423,-0.36194601036183105,0.001780013163959174,0.11079889945466748,0.45486887293429756,1.7227665977411037,4.819235677759417,1.3176372105451046,1.683609056541257,1.8482134064419409,2.8014516446074316,1.2798872397485983
0,44.18389463906083,176.3953488372093,12.810225705018258,14.301182102323203,14.474215128996274,0.07262224196648452,0.08107459860249146,180.0,8.8956,0.04942,14.5,166.4,185.6,0.0,16.27906976744186,145.0,197.0,2.5294117647058822,46.875,10.234815670066181,14.94399144712218,0.6848783142228804,480.50344797657027,1.4601133942088425,3.3886666183697383,87.2796882995419,0.6046511627906976,0.6341463414634146,0.8461538461538461,0.25,49.568965517241374,49.622262387292224,49.515583515407855,51.21951219512195,0.468917345750873,0.5310826542491267,7.008705388266238,7.458830092009296,0.5710642732449358,0.42893572675506436,11.292994216699494,9.787295948996976,0.538448609877687,0.46155139012231305,9.398235727994921,8.701301866235765,1.014043159430566,1.4910157678492992,1.351511317584662,1.501540531718102,-0.07858902540366586,-0.524483721481587,-0.39937784873338517,0.0011794620075962225,0.17808027441257968,0.308434520949453,1.9459101490553135,4.611856614965962,1.5000639071349187,2.0939841530796515,1.9501119554212354,2.6203030555192672,1.261922035977232
0,46.636632874875346,167.8913043478261,27.996212649308728,30.942599186953323,31.267823200164855,0.16675201111850335,0.18430138062927007,172.0,25.9455,0.15084593023255813,45.5,139.0,189.0,8.695652173913043,28.26086956521739,120.0,227.0,5.111111111111111,78.125,22.109689817778623,32.80173067619352,0.6740403436647063,2278.3963747773905,1.4835907218299065,4.064599390900546,194.65737316465652,0.5,0.48780487804878053,0.7,0.1,53.29341317365268,52.57708103295732,53.97392365877026,68.29268292682927,0.8145990483927121,0.18540095160728795,19.97071719930322,9.527472239409951,0.1962908478017463,0.8037091521982539,14.532715907559455,29.40669487895067,0.3896567429635122,0.610343257036488,17.464669723535813,21.857795302550883,0.8960090985674624,2.206042532310339,2.3842564303619227,1.4297344936577194,0.6885600625811152,1.0162696433507197,-0.9326851920232716,0.009844588432750852,0.6104618611530612,0.4183239475892675,0.9315582040049435,4.865634510263744,1.1355352765946376,1.4729884551508339,1.8169475170139155,2.33093175123675,1.0806969044459374
0,46.96281492792806,166.0,21.64871050817269,23.509808827617274,23.774402668042413,0.13041391872393188,0.1416253543832366,170.5,26.686799999999998,0.1565208211143695,34.25,144.0,185.0,6.521739130434782,26.08695652173913,125.0,202.0,5.111111111111111,62.5,16.811041345232336,25.686749325461385,0.654463557542051,1356.6056967694012,1.527968957898389,3.83942374641947,156.9942223944895,0.391304347826087,0.40909090909090906,0.6666666666666666,0.0,50.66312997347481,50.28809539929707,51.05988353567865,65.9090909090909,0.7155837889996784,0.28441621100032183,14.22146265332789,8.965844279060597,0.2832761542594965,0.7167238457405035,13.671436713754035,21.746284949179458,0.41292382486567825,0.5870761751343219,13.949160939249746,16.63260762369017,0.8948083998240229,2.9429500445686956,1.4132254032985454,1.8974232699831084,-1.3344513472528092,-1.1927695689579862,-0.33547193824164123,0.00581929896284264,0.7051504775224277,0.338773456009684,1.0986122886681096,5.08877934736136,1.2828977829392798,2.059316137931069,1.9069066638754228,3.2528510410806883,1.2007743382732636
0,49.940318576545856,156.18367346938774,29.98240697294259,22.86144862718313,23.09991211490451,0.19196889346324147,0.1463754060802265,165.0,29.651999999999997,0.1797090909090909,38.0,129.6,181.60000000000002,8.16326530612245,20.408163265306122,89.0,209.0,5.444444444444445,101.5625,16.33410450126226,39.12273547249813,0.41750926421657164,2007.5871888378879,2.3951564329391193,4.009644525585696,374.8202861645175,0.42857142857142855,0.40909090909090906,0.6111111111111112,0.08333333333333333,51.31761442441054,50.58975739467109,52.054626297739425,65.9090909090909,0.7745844461274762,0.22541555387252363,14.377878990147298,7.756260340401495,0.29295138911514096,0.707048610884859,21.175174308170003,32.896814798239674,0.36446277128368476,0.6355372287163151,18.09850009305608,23.899372359308583,1.3221602113306523,1.6570967954924418,1.6524533514176931,1.8055402340649622,-0.15193663650041955,-0.33236837448896317,-0.4076174167594259,0.001223392633841197,0.20289418815929822,0.430694589635789,1.2367626271489272,5.078696323574588,0.9727974825773648,1.5482456103373725,1.6788953106364695,2.2185687815383512,1.1458591518602466
0,48.96037060890165,158.82978723404256,33.28618929495886,30.685997373111547,31.025009391287355,0.20957145302921185,0.1932005192948751,164.0,42.9954,0.2621670731707317,56.0,125.2,185.60000000000002,6.382978723404255,31.914893617021278,115.0,235.0,5.875,78.125,21.93799452695561,41.95792981542506,0.5228569336824266,2891.7506951754103,1.9125690711550956,4.168130958620011,320.98975541871283,0.23404255319148937,0.24444444444444444,0.45454545454545453,0.0,50.1657458563536,49.42723401933516,50.979354609873916,73.33333333333333,0.7718804109430912,0.22811958905690877,19.274047029331665,10.478019320887364,0.2437572715565085,0.7562427284434915,20.715377035566792,36.4875462133376,0.3571394167033118,0.6428605832966879,20.007695202278757,26.843341050988197,1.1458360893028905,2.7739412841749753,1.6571486923118155,1.9792617156633556,-1.0269462792876496,-0.6804578647139228,-0.3838789324095795,0.0037515561271534072,0.5703451105123449,0.505274607434989,0.8960880245566356,5.054380872862171,0.9679642434926867,1.2979496534174484,1.9300668441165065,3.2036327560050797,0.9454619322004489
0,49.84833974357099,156.42857142857142,28.964777460448982,24.746211831308646,24.99389996501132,0.18516296093437706,0.15819496147868542,163.0,35.5824,0.2182969325153374,51.0,124.6,182.20000000000002,8.16326530612245,20.408163265306122,112.0,225.0,7.0,78.125,17.673356153557716,37.110423207480366,0.4762369875101637,2060.462947658372,2.099794905112569,4.020934919178043,311.6971103105541,0.3469387755102041,0.3181818181818182,0.5,0.0,47.31903485254692,46.41291900121943,48.30299780094227,72.72727272727273,0.7716880996121658,0.22831190038783422,15.534107976909967,8.44947436360846,0.2888119157005991,0.7111880842994007,19.943595663237943,31.29595025973128,0.37816495041682585,0.6218350495831739,17.875339417994574,22.921934033593796,1.3198723765844345,3.99743335553294,2.118776542870028,2.480883097201277,-1.4182918288242305,-0.3915120813439783,-0.4094152366968047,0.01039394535470985,1.2961535787136944,0.4243699754629562,0.9555114450274368,4.966251935731181,0.8347108368869725,1.6146242108675453,1.7351487234326406,2.8311720216876375,0.8021014063021725
0,48.12532836151957,161.59574468085106,27.363621974906188,23.293962643830564,23.54988538080972,0.16933380287302052,0.1441496042475361,167.0,23.7216,0.1420455089820359,35.5,130.20000000000002,182.60000000000002,4.25531914893617,23.404255319148938,109.0,211.0,5.875,93.75,16.652283648936493,34.99765347551562,0.47581143291753664,1830.8914614891144,2.101672912456711,3.969632709275215,294.21448123615056,0.3829787234042553,0.4,0.6666666666666666,0.0,49.14529914529915,48.80348200925155,49.50833653748738,66.66666666666666,0.7324919871794869,0.26750801282051273,14.252874953652139,8.613297213546558,0.3130101503178543,0.6869898496821455,19.58024570438661,29.0077528765694,0.3904556905529174,0.6095443094470827,17.124988558953763,21.396712549326462,1.231549278026427,1.681794955368038,1.730536890249823,1.654747373239878,0.4735451430990594,0.43523800615210906,-0.5450646594984937,0.002877788756801133,0.2819349254396136,0.3945012025555785,1.0459685551826874,5.198101883546499,0.9706493818707392,1.5084560049352103,1.7960134887237147,2.2607213019464423,1.063644673725505
1,73.61947797802934,105.97222222222223,8.263226226373789,5.530962781991454,5.56852320676006,0.0779753982043136,0.05219257146833351,105.5,9.636899999999999,0.09134502369668246,13.0,99.0,113.0,0.0,0.0,88.0,122.0,2.88,23.4375,3.937540520694697,11.046198942007083,0.3564611267067448,136.64311987059693,2.805354988463258,2.842557879342407,123.95403722206852,0.3611111111111111,0.3623188405797102,0.56,0.05555555555555555,48.42767295597484,48.45784282704247,48.40434934556269,55.072463768115945,0.5478821362799264,0.4521178637200736,2.9154759474226504,2.6484496812825635,0.4555474236373867,0.5444525763626133,7.455549500363319,8.150662102800647,0.4659631728027816,0.5340368271972186,5.660619151310559,6.060015611709114,1.5613403447596248,0.46054314771058813,1.5846001565055157,1.705500121316791,0.2356367083814117,-0.5046035018507018,-0.23748395690548701,4.698093172724141e-05,0.010073899758782204,0.46085361757760746,2.3978952727983707,4.751687030074885,1.103426462884457,1.8935223388853522,1.693810794755323,2.423732987702377,0.8569340279780989
1,67.93344538428842,114.94029850746269,9.53284687837337,5.85687888751597,5.900495811018835,0.08293737707453783,0.05095583501669523,116.0,8.8956,0.07668620689655173,11.5,106.2,121.80000000000001,0.0,0.0,93.0,132.0,3.526315789473684,31.25,4.1722806003342345,12.898401628448564,0.3234726844861073,169.06716764248557,3.0914511424316222,2.9350293870088136,159.49911379923682,0.44776119402985076,0.4426229508196722,0.5555555555555556,0.0625,51.26582278481011,51.277134858149445,51.2470457872808,52.459016393442624,0.5353356890459364,0.46466431095406363,3.0533714027410626,2.8446981724442564,0.48749646857663714,0.5125035314233629,9.005786207140977,9.233882139167354,0.4920297127539585,0.5079702872460412,6.724108198557173,6.832162434117824,1.3568459314944252,1.0918589289390672,1.5964225257095186,1.4756888376705803,0.5633907761525521,0.6577561191774413,-0.610576270284525,0.0003312806367131735,0.07556063476760419,0.3189014698401893,2.995732273553991,4.7408057946447695,1.1107229991281515,1.902521812884182,1.8008412618647682,2.5990956443892137,0.8148478017032829
1,70.27888581024439,111.05797101449275,9.556156097097235,5.534650209469111,5.568690695910951,0.08604655757532419,0.04983568634390821,110.0,10.3782,0.09434727272727272,16.0,102.6,120.0,0.0,0.0,91.0,133.0,3.2857142857142856,39.0625,3.937658953409068,12.796522484976778,0.3077132055237594,158.29964296608514,3.24977928164603,2.9064500453040334,166.3434945951804,0.463768115942029,0.46153846153846156,0.7,0.058823529411764705,46.822742474916396,46.43311197736178,47.1812989819859,58.46153846153847,0.5367258761401824,0.46327412385981753,2.8884742654366082,2.683559676495649,0.43472482586019845,0.5652751741398014,8.437216342847933,9.621037786668131,0.4435682221384737,0.5564317778615264,6.305945733912947,7.062784883805022,1.3068244504882507,1.3161819347962824,1.5740702436241882,1.610693099518962,0.22718094762064744,0.12651038557212058,-0.4721749289163112,0.0008069027101401871,0.12255857363741539,0.4386368001511718,2.0149030205422647,4.814550362355789,0.9638707867944852,1.8057856638685366,1.7040710672145363,2.5502320368480715,0.9738227394863748
1,71.56490485658716,109.16901408450704,7.634481768347303,5.00428387912368,5.036944257525207,0.0699326803706178,0.04583978266259596,109.0,8.8956,0.08161100917431192,12.0,102.0,116.0,0.0,0.0,96.0,126.0,2.730769230769231,23.4375,3.561657440954713,10.213684848185489,0.3487142489605462,114.28374743630164,2.867677483730069,2.764954582696504,117.15821626022598,0.4225352112676056,0.4,0.5384615384615384,0.05263157894736842,52.28070175438595,52.303340643521004,52.25217305995231,46.15384615384615,0.5299486594409583,0.47005134055904163,2.594587454292303,2.4435659378771883,0.5560989569858557,0.4439010430141443,7.616553438153613,6.80495936077536,0.5532603125598299,0.44673968744016995,5.689629615986467,5.112655200312154,1.323651459838534,1.5671910204794814,1.5441748537618658,1.8973937220491606,-0.5632790867387722,-1.0388806967071629,-0.2746165823619717,0.0013898753912163948,0.1865957986744244,0.45639286008970625,1.410986973710262,4.581321113359735,1.1522927729288865,1.824311459612313,1.8007641127127856,2.3947868168935864,0.9527777227401621
1,69.07633787853923,113.0,8.79789662786662,6.082762530298219,6.1220069252167315,0.07785749228200549,0.05382975690529398,110.5,8.1543,0.0737945701357466,13.0,105.0,121.6,0.0,1.4705882352941175,99.0,136.0,2.72,0.0,4.328912611291757,11.52652144046125,0.3755610600867046,156.75700376810494,2.6626828664535487,2.9021970638019567,122.76588459730259,0.47058823529411764,0.4666666666666667,0.6428571428571429,0.1111111111111111,53.1772575250836,52.93904458650787,53.42006626271407,51.66666666666667,0.6256555062525211,0.37434449374747886,3.427827300200522,2.6514718611184676,0.5708380384506636,0.4291619615493365,8.70872777087382,7.551076554387727,0.5776270246730132,0.42237297532698687,6.617852347521396,5.659022007402297,1.1751023501421782,0.9514393182811545,1.263964232070626,1.3468111979309263,0.29782993520233525,0.1644948155447441,-0.41292459301559076,0.0005688792286406883,0.05411216287330707,0.43583608860112033,1.791759469228055,4.699174194281104,1.111140733757325,1.764107555787087,1.7875532822167979,2.564238388419081,0.8952151237132852
1,68.77775906588211,113.08823529411765,13.071257398340112,5.186089315472662,5.179238727328858,0.11558459077856015,0.04585878718493381,110.0,12.6021,0.11456454545454546,20.25,104.0,126.6,0.0,0.0,85.0,137.0,2.9565217391304346,31.25,3.6622748254782196,17.78805696532192,0.20588391596776862,204.6582781304401,4.857105982754628,3.0179994258800957,345.59391163138093,0.47058823529411764,0.46875,0.7333333333333333,0.2,41.843971631205676,41.14736323270104,42.45356970021813,56.25,0.4295227524972252,0.5704772475027747,2.421494654884946,2.79067711996189,0.37114163599204814,0.6288583640079516,10.836732433784206,14.106034196758038,0.3735562728332121,0.6264437271667881,7.851700650338974,10.167794243295495,1.4922947551535437,0.4084015916903221,1.5239209760208086,1.3800852291771455,0.8141009928602347,0.6820653552399536,-0.8521919350224499,9.246162503803955e-05,0.009582482058454904,0.5862171204126505,1.264597426142371,4.978873459114249,0.7814460390605228,1.5346523495226623,1.5617557721173203,1.7582358634388626,0.4476075618566426
1,79.90620977342054,97.73417721518987,8.448499883167688,5.394679240007148,5.429535291335114,0.08644365895224031,0.05519746923462825,97.0,8.8956,0.09170721649484537,11.5,90.0,104.0,0.0,0.0,82.0,118.0,2.7241379310344827,31.25,3.8392612231947356,11.368923179106023,0.3376978771613645,137.12507152799915,2.9612267877010168,2.8440869770839003,134.66383946113504,0.4050632911392405,0.3918918918918919,0.5862068965517241,0.09523809523809523,49.6969696969697,49.66164997598253,49.73631680656816,54.054054054054056,0.5806167400881058,0.41938325991189424,2.925481423362924,2.486326242032244,0.41963481133636615,0.5803651886636337,7.364700433118899,8.661039301540695,0.4361142291948702,0.5638857708051297,5.6034477791812805,6.371633227228743,1.428843198928004,1.4168884922037832,1.722768758866801,1.7342171088831335,0.26308259161331193,0.26889692613259886,-0.49192007692960643,0.000809734682831453,0.14018155551666237,0.5793579983335388,2.9957322735539913,4.7796841912921915,1.0787556925565973,1.917616723459326,1.6670497452876707,2.5101020471754594,0.9575363161788004
1,77.81606532532444,100.5,12.974333637352377,6.977105417004963,7.023769168568493,0.1290978471378346,0.06942393449756182,101.0,14.825999999999999,0.14679207920792078,20.5,89.0,112.0,0.0,1.3157894736842104,77.0,130.0,4.222222222222222,46.875,4.96655480858378,17.72455923288362,0.2802075212888534,276.5543852360214,3.568783576544845,3.1487506592927628,253.02046356724549,0.39473684210526316,0.38028169014084506,0.4444444444444444,0.11764705882352941,49.37965260545905,49.28640512844564,49.476262648416885,53.52112676056338,0.5792933442892356,0.42070665571076415,3.780283129679646,3.221549065027317,0.4678442384324736,0.5321557615675262,12.123446125006945,12.929889947484241,0.47595844829607864,0.5240415517039215,8.9796571896283,9.422325414472597,1.3873925786726071,1.7035612452789939,1.7529866790559152,1.956332242091264,-0.6038399139615382,-1.0297942837167113,-0.38063501467947114,0.001010821405290039,0.2011866228304127,0.5348673002291289,1.2992829841302609,4.951828915232824,0.9506439901966389,1.801702149886669,1.5736929292652468,2.269888595681063,0.739886152907793
1,79.38159439275603,98.29113924050633,10.819204078425544,6.74631903431942,6.788758803142596,0.11007303569808345,0.0686360854747243,97.0,11.8608,0.12227628865979381,16.0,89.0,107.0,0.0,1.2658227848101267,78.0,128.0,3.2916666666666665,39.0625,4.800377385541999,14.609456883684294,0.3285801398204622,220.32274045989166,3.0433975728003673,3.050029434831824,177.8495424789456,0.3924050632911392,0.3783783783783784,0.4642857142857143,0.0,48.78048780487807,48.7414288275688,48.83305096331764,51.35135135135135,0.5785915492957747,0.42140845070422533,3.6520764419248315,3.116774889895918,0.4803452300757079,0.5196547699242923,10.1253679051866,10.531531475566482,0.4899218992413053,0.5100781007586944,7.611200219185053,7.7661908595891855,1.4425395907113394,2.198463979269917,1.738590441985058,1.9105969208364577,-1.305358194273957,-0.7366060349096326,-0.42176061082951155,0.0003418158456461161,0.22256998603266,0.5981851134722289,1.4152818979931432,4.961840640982865,1.0198379952029895,1.9342133624165572,1.6356221738135726,2.725245499934694,1.0373310091937005
